1000
-0,012 -0,012 -0,014 -0,014 -0,016 -0,016 -0,016 -0,016 -0,016 -0,016 -0,018 -0,018 -0,018 -0,018 -0,018 -0,018 -0,018 -0,018 -0,016 -0,016 -0,016 -0,016 -0,016 -0,016 -0,016 -0,016 -0,016 -0,016 -0,016 -0,014 -0,014 -0,014 -0,012 -0,012 -0,01 -0,01 -0,008 -0,008 -0,008 -0,008 -0,008 -0,01 -0,012 -0,014 -0,016 -0,016 -0,018 -0,018 -0,018 -0,02 -0,02 -0,02 -0,022 -0,022 -0,022 -0,022 -0,022 -0,022 -0,022 -0,02 -0,02 -0,018 -0,018 -0,018 -0,016 -0,016 -0,016 -0,016 -0,016 -0,016 -0,016 -0,016 -0,016 -0,016 -0,016 -0,016 -0,014 -0,014 -0,012 -0,01 -0,008 -0,008 -0,006 -0,006 -0,004 -0,004 -0,004 -0,006 -0,006 -0,008 -0,008 -0,01 -0,01 -0,012 -0,012 -0,012 -0,014 -0,014 -0,016 -0,016 -0,016 -0,018 -0,018 -0,018 -0,018 -0,018 -0,018 -0,02 -0,02 -0,02 -0,02 -0,02 -0,022 -0,022 -0,022 -0,022 -0,024 -0,024 -0,024 -0,024 -0,024 -0,024 -0,024 -0,024 -0,024 -0,022 -0,022 -0,022 -0,022 -0,022 -0,022 -0,024 -0,024 -0,024 -0,024 -0,024 -0,024 -0,024 -0,024 -0,024 -0,024 -0,022 -0,022 -0,02 -0,018 -0,018 -0,018 -0,016 -0,016 -0,016 -0,016 -0,014 -0,014 -0,014 -0,014 -0,012 -0,012 -0,012 -0,014 -0,014 -0,014 -0,016 -0,016 -0,016 -0,016 -0,018 -0,018 -0,018 -0,02 -0,02 -0,022 -0,022 -0,022 -0,024 -0,024 -0,026 -0,026 -0,026 -0,026 -0,026 -0,024 -0,024 -0,022 -0,022 -0,02 -0,018 -0,018 -0,018 -0,016 -0,016 -0,016 -0,016 -0,016 -0,014 -0,014 -0,014 -0,014 -0,012 -0,012 -0,01 -0,008 -0,008 -0,008 -0,006 -0,006 -0,006 -0,006 -0,006 -0,006 -0,008 -0,008 -0,008 -0,01 -0,01 -0,01 -0,012 -0,012 -0,012 -0,012 -0,012 -0,014 -0,014 -0,014 -0,014 -0,012 -0,012 -0,012 -0,012 -0,012 -0,012 -0,012 -0,014 -0,014 -0,014 -0,014 -0,014 -0,014 -0,014 -0,012 -0,014 -0,014 -0,014 -0,016 -0,018 -0,018 -0,018 -0,018 -0,02 -0,02 -0,02 -0,02 -0,02 -0,022 -0,022 -0,022 -0,024 -0,024 -0,026 -0,028 -0,028 -0,028 -0,03 -0,03 -0,028 -0,028 -0,028 -0,026 -0,026 -0,024 -0,022 -0,02 -0,02 -0,018 -0,016 -0,014 -0,014 -0,012 -0,012 -0,012 -0,012 -0,012 -0,012 -0,012 -0,01 -0,01 -0,01 -0,01 -0,01 -0,01 -0,01 -0,01 -0,01 -0,01 -0,01 -0,01 -0,01 -0,01 -0,01 -0,008 -0,008 -0,008 -0,008 -0,008 -0,006 -0,006 -0,006 -0,004 -0,004 -0,004 -0,004 -0,004 -0,004 -0,002 -0,004 -0,004 -0,004 -0,006 -0,006 -0,008 -0,01 -0,01 -0,012 -0,014 -0,016 -0,016 -0,018 -0,02 -0,02 -0,022 -0,022 -0,022 -0,022 -0,024 -0,024 -0,024 -0,026 -0,026 -0,026 -0,026 -0,028 -0,028 -0,028 -0,028 -0,028 -0,026 -0,026 -0,024 -0,022 -0,02 -0,02 -0,018 -0,016 -0,014 -0,014 -0,012 -0,01 -0,01 -0,008 -0,008 -0,008 -0,008 -0,008 -0,008 -0,008 -0,01 -0,01 -0,01 -0,012 -0,012 -0,012 -0,012 -0,012 -0,01 -0,008 -0,008 -0,006 -0,004 -0,004 -0,002 -0,002 -0,002 -0,002 -0,002 -0,004 -0,004 -0,006 -0,008 -0,008 -0,01 -0,012 -0,012 -0,014 -0,014 -0,016 -0,016 -0,016 -0,018 -0,018 -0,018 -0,018 -0,018 -0,018 -0,02 -0,02 -0,02 -0,02 -0,02 -0,02 -0,018 -0,016 -0,014 -0,012 -0,01 -0,008 -0,004 0 0,002 0,006 0,012 0,018 0,024 0,034 0,042 0,054 0,066 0,078 0,09 0,102 0,114 0,126 0,138 0,15 0,162 0,172 0,184 0,196 0,206 0,214 0,222 0,23 0,236 0,24 0,244 0,246 0,246 0,244 0,242 0,236 0,23 0,222 0,214 0,204 0,192 0,18 0,166 0,152 0,136 0,118 0,1 0,082 0,064 0,044 0,028 0,012 -0,004 -0,018 -0,03 -0,042 -0,052 -0,062 -0,072 -0,08 -0,088 -0,096 -0,102 -0,108 -0,112 -0,116 -0,12 -0,122 -0,124 -0,126 -0,128 -0,13 -0,13 -0,132 -0,132 -0,134 -0,134 -0,136 -0,136 -0,138 -0,138 -0,14 -0,14 -0,142 -0,142 -0,144 -0,144 -0,144 -0,144 -0,146 -0,146 -0,146 -0,144 -0,144 -0,144 -0,144 -0,142 -0,142 -0,14 -0,14 -0,138 -0,138 -0,136 -0,136 -0,134 -0,134 -0,13 -0,128 -0,126 -0,122 -0,12 -0,116 -0,114 -0,11 -0,108 -0,104 -0,102 -0,1 -0,098 -0,094 -0,092 -0,088 -0,086 -0,082 -0,08 -0,076 -0,074 -0,072 -0,07 -0,066 -0,064 -0,06 -0,058 -0,054 -0,05 -0,046 -0,042 -0,038 -0,036 -0,032 -0,03 -0,028 -0,026 -0,024 -0,022 -0,02 -0,018 -0,016 -0,012 -0,012 -0,01 -0,01 -0,008 -0,01 -0,01 -0,01 -0,012 -0,012 -0,012 -0,014 -0,014 -0,016 -0,016 -0,016 -0,016 -0,016 -0,016 -0,014 -0,014 -0,012 -0,012 -0,01 -0,01 -0,01 -0,008 -0,008 -0,01 -0,01 -0,01 -0,012 -0,012 -0,012 -0,01 -0,01 -0,01 -0,008 -0,006 -0,006 -0,004 -0,002 -0,002 0 0 0 0 0 0 0,002 0,002 0,004 0,006 0,008 0,008 0,01 0,012 0,014 0,014 0,016 0,016 0,016 0,016 0,016 0,016 0,016 0,016 0,014 0,016 0,016 0,016 0,018 0,018 0,02 0,02 0,022 0,024 0,024 0,026 0,026 0,028 0,03 0,032 0,032 0,034 0,036 0,038 0,038 0,04 0,042 0,042 0,044 0,048 0,048 0,05 0,052 0,054 0,056 0,056 0,058 0,058 0,06 0,06 0,06 0,06 0,06 0,06 0,062 0,062 0,062 0,064 0,064 0,064 0,064 0,064 0,066 0,066 0,066 0,066 0,068 0,068 0,068 0,07 0,07 0,07 0,072 0,074 0,074 0,076 0,078 0,08 0,08 0,082 0,084 0,084 0,084 0,086 0,086 0,086 0,086 0,086 0,086 0,086 0,088 0,088 0,088 0,088 0,09 0,09 0,09 0,092 0,092 0,092 0,092 0,092 0,092 0,092 0,094 0,094 0,094 0,094 0,094 0,094 0,094 0,094 0,094 0,096 0,096 0,096 0,094 0,094 0,092 0,092 0,09 0,09 0,088 0,088 0,09 0,09 0,092 0,094 0,098 0,1 0,102 0,106 0,108 0,108 0,11 0,11 0,112 0,112 0,11 0,11 0,108 0,106 0,106 0,104 0,104 0,102 0,102 0,1 0,1 0,098 0,096 0,096 0,094 0,092 0,09 0,088 0,086 0,084 0,082 0,078 0,076 0,072 0,07 0,068 0,064 0,062 0,06 0,056 0,054 0,052 0,05 0,046 0,044 0,04 0,038 0,036 0,034 0,032 0,03 0,03 0,028 0,028 0,028 0,026 0,026 0,026 0,026 0,026 0,026 0,024 0,024 0,022 0,022 0,02 0,018 0,016 0,014 0,012 0,01 0,008 0,006 0,004 0,002 0 0 0 -0,002 -0,002 -0,002 -0,002 -0,002 -0,002 -0,002 -0,002 -0,002 -0,002 -0,002 -0,002 -0,002 -0,002 -0,002 -0,002 -0,002 -0,002 -0,002 -0,004 -0,004 -0,004 -0,006 -0,006 -0,008 -0,01 -0,01 -0,012 -0,014 -0,014 -0,016 -0,018 -0,02 -0,022 -0,024 -0,026 -0,026 -0,028 -0,03 -0,032 -0,032 -0,034 -0,034 -0,036 -0,036 -0,038 -0,038 -0,038 -0,038 -0,038 -0,038 -0,038 -0,036 -0,036 -0,034 -0,032 -0,028 -0,026 -0,022 -0,02 -0,018 -0,016 -0,014 -0,012 -0,01 -0,01 -0,01 -0,008 -0,008 -0,008 -0,008 -0,008 -0,008 -0,008 -0,008 -0,008 -0,008 -0,01 -0,01 -0,012 -0,012 -0,012 -0,012 -0,012 -0,014 -0,014 -0,014 -0,014 -0,014 -0,014 -0,016 -0,016 -0,016 -0,016 -0,016 -0,016 -0,016 -0,016 -0,016 -0,016 -0,016 -0,016 -0,016 -0,016 -0,016 -0,016 -0,016 -0,016 -0,014 -0,014 -0,014 -0,014 -0,012 -0,012 -0,012 -0,012 -0,012 -0,012 -0,012 -0,012 -0,012 -0,014 -0,014 -0,016 -0,016 -0,018 -0,018 -0,02 -0,02 -0,02 -0,02 -0,02 -0,02 -0,02 -0,022 -0,022 -0,024 -0,026 -0,028 -0,03 -0,03 -0,032 -0,034 -0,034 -0,034 -0,032 -0,032 -0,03 -0,03 -0,028 -0,026 -0,024 -0,022 -0,02 -0,018 -0,018 -0,016 -0,016 -0,014 -0,014 -0,012 -0,012 -0,01 -0,01 -0,01 -0,01 -0,012 -0,012 -0,014 -0,014 -0,014 -0,012 -0,012 -0,012 -0,01 -0,01 -0,01 -0,01 -0,01 -0,01 -0,01 -0,01 -0,01 -0,01 -0,01 -0,012 -0,012 -0,014 -0,016 -0,016 -0,018 -0,018 -0,018 -0,018 -0,018 -0,018 -0,016 -0,016 -0,016 -0,014 -0,014 -0,014 -0,014 -0,016 -0,016 -0,016 -0,016 -0,018 -0,018 -0,02 -0,02 -0,02 -0,022 -0,022 -0,022 -0,022 -0,022 -0,022 -0,022 -0,022 -0,022 -0,02 -0,02 -0,02 -0,02 -0,02 -0,018 -0,018 -0,018 -0,018 -0,018 -0,02 -0,02 -0,022 -0,022 -0,024 -0,024 -0,026 -0,026 -0,026 -0,026 -0,026 -0,024 -0,024 -0,022 -0,022 -0,02 -0,02 -0,02 -0,02 -0,02 -0,02 -0,02 -0,02 -0,02 -0,018 -0,018 -0,018 -0,018 -0,018 -0,018 -0,018 -0,018 -0,018 -0,018 -0,018 -0,018 -0,018 -0,018 -0,018 -0,02 -0,02 -0,022 -0,022 -0,022 -0,022 -0,024 -0,024 -0,026 -0,026 -0,026 -0,026 -0,026 -0,024 -0,024 -0,022 -0,022 -0,02 -0,02 -0,02 -0,02 -0,02 -0,02 -0,02 -0,02 -0,018 -0,018 -0,016 -0,016 -0,014 -0,014 -0,012 -0,012 -0,012 -0,01 -0,01 -0,01 -0,008 -0,008 -0,008 -0,006 -0,006 -0,006 -0,006 -0,006 -0,006 -0,006 -0,006 -0,006 -0,006 -0,006 -0,006 -0,006 -0,006 -0,008 -0,008 -0,008 -0,008 -0,008 -0,008 -0,006 -0,006 -0,006 -0,004 -0,004 -0,004 -0,002 -0,002 -0,002 -0,002 -0,002 -0,002 0 0 0 -0,002 -0,002 -0,002 -0,004 -0,006 -0,006 -0,008 -0,008 -0,008 -0,01 -0,012 -0,012 -0,014 -0,016 -0,018 -0,018 -0,02 -0,02 -0,022 -0,022 -0,022 -0,022 -0,022 -0,022 -0,022 -0,02 -0,016 -0,014 -0,012 -0,008 -0,006 -0,006 -0,004 -0,004 -0,004 -0,004 -0,004 -0,006 -0,006 -0,008 -0,008 -0,01 -0,012 -0,012 -0,014 -0,016 -0,018 -0,02 -0,022 -0,022 -0,024 -0,026 -0,026 -0,026 -0,026 -0,026 -0,024 -0,024 -0,022 -0,022 -0,02 -0,02 -0,018 -0,018 -0,018 -0,018 -0,02 -0,02 -0,018 -0,018 -0,018 -0,018 -0,018 -0,018 -0,016 -0,016 -0,016 -0,016 -0,016 -0,016 -0,016 -0,014 -0,014 -0,014 -0,014 -0,014 -0,014 -0,012 -0,012 -0,012 -0,012 -0,012 -0,012 -0,012 -0,014 -0,014 -0,016 -0,016 -0,018 -0,018 -0,02 -0,02 -0,022 -0,022 -0,024 -0,024 -0,024 -0,024 -0,024 -0,024 -0,024 -0,024 -0,024 -0,024 -0,024 -0,026 -0,026 -0,026 -0,026 -0,026 -0,026 -0,026 -0,026 -0,026 -0,026 -0,026 -0,026 -0,026 -0,026 -0,026 -0,026 -0,026 -0,026 -0,026 -0,026 -0,026 -0,026 -0,026 -0,024 -0,024 -0,024 -0,024 -0,024 -0,022 -0,022 -0,022 -0,02 -0,022 -0,022 -0,022 -0,022 -0,024 -0,024 -0,026 -0,026 -0,026 -0,026 -0,026 -0,026 -0,026 -0,026 -0,026 -0,026 -0,026 -0,026 -0,026 -0,026 -0,026 -0,026 -0,026 -0,026 -0,026 -0,026 -0,028 -0,03 -0,03 -0,032 -0,034 -0,034 -0,034 -0,034 -0,034 -0,034 -0,032 -0,032 -0,032 -0,032 -0,032 -0,032 -0,032 -0,032 -0,03 -0,03 -0,028 -0,028 -0,026 -0,024 -0,022 -0,02 -0,018 -0,014 -0,01 -0,006 0 0,008 0,016 0,026 0,038 0,052 0,064 0,078 0,092 0,104 0,116 0,128 0,14 0,154 0,166 0,178 0,19 0,2 0,21 0,22 0,226 0,232 0,236 0,24 0,242 0,242 0,24 0,238 0,234 0,228 0,222 0,214 0,204 0,192 0,178 0,164 0,15 0,134 0,116 0,098 0,08 0,062 0,044 0,026 0,01 -0,006 -0,02 -0,034 -0,048 -0,058 -0,07 -0,08 -0,088 -0,096 -0,104 -0,11 -0,114 -0,12 -0,124 -0,128 -0,132 -0,134 -0,136 -0,138 -0,14 -0,14 -0,142 -0,142 -0,144 -0,146 -0,146 -0,148 -0,148 -0,148 -0,15 -0,152 -0,152 -0,154 -0,156 -0,158 -0,16 -0,162 -0,162 -0,162 -0,164 -0,162 -0,162 -0,162 -0,16 -0,16 -0,158 -0,156 -0,154 -0,152 -0,15 -0,148 -0,146 -0,144 -0,142 -0,14 -0,138 -0,136 -0,134 -0,13 -0,128 -0,124 -0,118 -0,114 -0,11 -0,104 -0,098 -0,092 -0,086 -0,082 -0,076 -0,072 -0,068 -0,064 -0,06 -0,056 -0,052 -0,05 -0,046 -0,042 -0,04 -0,038 -0,036 -0,034 -0,034 -0,034 -0,032 -0,032 -0,032 -0,03 -0,03 -0,03 -0,028 -0,028 -0,026 -0,026 -0,026 -0,026 -0,026 -0,026 -0,026 -0,026 -0,026 -0,026 -0,024 -0,024 -0,024 -0,022 -0,02 -0,018 -0,018 -0,016 -0,014 -0,012 -0,01 -0,01 -0,008 -0,008 -0,008 -0,008 -0,008 -0,008 -0,008 -0,008 -0,008 -0,008 -0,01 -0,01 -0,01 -0,01 -0,012 -0,01 -0,01 -0,008 -0,008 -0,006 -0,004 -0,002 0 0,002 0,004 0,006 0,006 0,008 0,008 0,008 0,008 0,008 0,008 0,008 0,006 0,006 0,006 0,006 0,006 0,008 0,008 0,008 0,01 0,01 0,01 0,012 0,012 0,012 0,012 0,012 0,014 0,016 0,016 0,018 0,02 0,022 0,024 0,026 0,028 0,028 0,03 0,032 0,032 0,034 0,034 0,034 0,036 0,038 0,038 0,04 0,042 0,042 0,044 0,046 0,05 0,052 0,054 0,056 0,058 0,058 0,06 0,062 0,062 0,064 0,064 0,066 0,066 0,066 0,066 0,066 0,066 0,066 0,066 0,066 0,066 0,066 0,066 0,066 0,066 0,066 0,068 0,07 0,07 0,072 0,074 0,078 0,08 0,082 0,084 0,086 0,088 0,09 0,092 0,094 0,096 0,096 0,098 0,098 0,098 0,098 0,098 0,098 0,098 0,098 0,098 0,098 0,1 0,1 0,102 0,104 0,104 0,106 0,108 0,11 0,11 0,112 0,112 0,114 0,116 0,116 0,118 0,12 0,12 0,122 0,122 0,122 0,122 0,122 0,122 0,12 0,12 0,12 0,12 0,12 0,12 0,118 0,118 0,118 0,116 0,114 0,114 0,114 0,114 0,112 0,112 0,112 0,112 0,11 0,11 0,11 0,108 0,108 0,108 0,108 0,106 0,106 0,104 0,104 0,102 0,1 0,1 0,098 0,094 0,092 0,09 0,088 0,084 0,082 0,08 0,078 0,076 0,074 0,074 0,072 0,072 0,072 0,072 0,072 0,072 0,072 0,07 0,07 0,07 0,07 0,07 0,068 0,068 0,066 0,064 0,062 0,06 0,058 0,056 0,054 0,05 0,048 0,046 0,044 0,042 0,04 0,038 0,036 0,034 0,03 0,028 0,024 0,022 0,02 0,016 0,014 0,01 0,008 0,006 0,004 0,002 0,002 0,002 0,002 0,004 0,004 0,004 0,006 0,006 0,008 0,008 0,008 0,01 0,01 0,01 0,012 0,012 0,01 0,01 0,01 0,01 0,008 0,008 0,008 0,006 0,004 0,004 0,002 0 0 -0,002 -0,002 -0,004 -0,004 -0,004 -0,006 -0,006 -0,006 -0,008 -0,008 -0,008 -0,008 -0,006 -0,006 -0,006 -0,008 -0,008 -0,008 -0,008 -0,008 -0,01 -0,01 -0,01 -0,012 -0,012 -0,012 -0,012 -0,012 -0,012 -0,012 -0,012 -0,012 -0,012 -0,012 -0,012 -0,012 -0,012 -0,01 -0,01 -0,01 -0,01 -0,01 -0,01 -0,01 -0,01 -0,01 -0,01 -0,01 -0,01 -0,012 -0,012 -0,014 -0,014 -0,016 -0,016 -0,016 -0,018 -0,018 -0,018 -0,02 -0,02 -0,02 -0,022 -0,022 -0,022 -0,024 -0,024 -0,024 -0,024 -0,024 -0,024 -0,022 -0,022 -0,022 -0,022 -0,022 -0,022 -0,02 -0,018 -0,016 -0,014 -0,012 -0,008 -0,006 -0,004 -0,002 0 0,002 0,004 0,004 0,004 0,006 0,006 0,004 0,004 0,004 0,004 0,002 0 0 -0,002 -0,002 -0,004 -0,006 -0,006 -0,008 -0,008 -0,008 -0,01 -0,01 -0,01 -0,01 -0,01 -0,01 -0,01 -0,01 -0,01 -0,01 -0,008 -0,008 -0,008 -0,008 -0,008 -0,008 -0,008 -0,008 -0,01 -0,01 -0,01 -0,01 -0,012 -0,012 -0,012 -0,012 -0,012 -0,014 -0,014 -0,014 -0,014 -0,016 -0,016 -0,016 -0,016 -0,014 -0,014 -0,014 -0,016 -0,016 -0,016 -0,018 -0,018 -0,02 -0,02 -0,022 -0,022 -0,024 -0,024 -0,024 -0,024 -0,022 -0,022 -0,022 -0,022 -0,022 -0,022 -0,02 -0,02 -0,02 -0,022 -0,022 -0,022 -0,022 -0,024 -0,024 -0,024 -0,026 -0,026 -0,028 -0,028 -0,03 -0,03 -0,03 -0,03 -0,03 -0,03 -0,032 -0,032 -0,032 -0,03 -0,03 -0,03 -0,03 -0,028 -0,028 -0,028 -0,026 -0,026 -0,026 -0,026 -0,026 -0,024 -0,024 -0,022 -0,022 -0,02 -0,018 -0,018 -0,018 -0,016 -0,016 -0,014 -0,014 -0,014 -0,014 -0,014 -0,014 -0,014 -0,012 -0,012 -0,012 -0,014 -0,014 -0,014 -0,014 -0,014 -0,016 -0,016 -0,018 -0,02 -0,02 -0,022 -0,022 -0,022 -0,024 -0,024 -0,024 -0,024 -0,024 -0,022 -0,022 -0,022 -0,022 -0,022 -0,022 -0,022 -0,022 -0,022 -0,022 -0,022 -0,024 -0,024 -0,024 -0,024 -0,024 -0,024 -0,024 -0,024 -0,024 -0,024 -0,024 -0,022 -0,022 -0,022 -0,022 -0,022 -0,022 -0,02 -0,02 -0,02 -0,02 -0,02 -0,018 -0,018 -0,018 -0,018 -0,016 -0,016 -0,016 -0,016 -0,016 -0,014 -0,014 -0,016 -0,016 -0,016 -0,016 -0,016 -0,018 -0,018 -0,018 -0,02 -0,02 -0,02 -0,022 -0,022 -0,022 -0,022 -0,022 -0,024 -0,024 -0,024 -0,024 -0,024 -0,024 -0,024 -0,022 -0,022 -0,022 -0,022 -0,022 -0,022 -0,024 -0,024 -0,026 -0,028 -0,03 -0,032 -0,034 -0,034 -0,036 -0,038 -0,038 -0,038 -0,036 -0,034 -0,03 -0,028 -0,024 -0,02 -0,018 -0,016 -0,012 -0,01 -0,008 -0,008 -0,006 -0,006 -0,006 -0,008 -0,008 -0,01 -0,01 -0,012 -0,012 -0,014 -0,016 -0,016 -0,018 -0,018 -0,018 -0,02 -0,02 -0,02 -0,02 -0,02 -0,02 -0,02 -0,02 -0,018 -0,018 -0,016 -0,016 -0,016 -0,016 -0,016 -0,018 -0,018 -0,02 -0,02 -0,022 -0,022 -0,024 -0,026 -0,026 -0,026 -0,028 -0,028 -0,026 -0,026 -0,026 -0,026 -0,024 -0,024 -0,024 -0,024 -0,022 -0,022 -0,022 -0,022 -0,022 -0,022 -0,024 -0,024 -0,026 -0,026 -0,026 -0,026 -0,026 -0,026 -0,028 -0,028 -0,03 -0,03 -0,03 -0,032 -0,032 -0,032 -0,032 -0,032 -0,03 -0,03 -0,028 -0,028 -0,026 -0,026 -0,026 -0,026 -0,026 -0,026 -0,026 -0,026 -0,026 -0,026 -0,026 -0,026 -0,028 -0,028 -0,028 -0,028 -0,03 -0,03 -0,03 -0,03 -0,032 -0,032 -0,034 -0,034 -0,036 -0,038 -0,038 -0,04 -0,04 -0,042 -0,042 -0,042 -0,042 -0,042 -0,042 -0,042 -0,04 -0,04 -0,04 -0,04 -0,04 -0,04 -0,04 -0,038 -0,038 -0,036 -0,036 -0,034 -0,032 -0,03 -0,03 -0,028 -0,026 -0,026 -0,024 -0,024 -0,024 -0,024 -0,024 -0,024 -0,022 -0,022 -0,022 -0,022 -0,024 -0,024 -0,024 -0,026 -0,026 -0,026 -0,028 -0,028 -0,03 -0,03 -0,03 -0,03 -0,032 -0,032 -0,032 -0,032 -0,034 -0,034 -0,034 -0,034 -0,034 -0,034 -0,032 -0,032 -0,032 -0,032 -0,03 -0,03 -0,03 -0,03 -0,028 -0,026 -0,026 -0,024 -0,024 -0,022 -0,022 -0,022 -0,022 -0,02 -0,02 -0,02 -0,018 -0,016 -0,014 -0,012 -0,01 -0,006 -0,004 0,002 0,008 0,014 0,022 0,032 0,044 0,056 0,068 0,082 0,096 0,11 0,124 0,138 0,152 0,168 0,182 0,196 0,208 0,22 0,232 0,242 0,252 0,258 0,264 0,268 0,272 0,272 0,272 0,272 0,268 0,264 0,258 0,248 0,24 0,228 0,214 0,2 0,186 0,17 0,154 0,136 0,118 0,098 0,078 0,06 0,04 0,022 0,002 -0,014 -0,032 -0,048 -0,062 -0,076 -0,088 -0,1 -0,108 -0,116 -0,124 -0,128 -0,134 -0,136 -0,138 -0,14 -0,142 -0,144 -0,144 -0,144 -0,144 -0,144 -0,144 -0,142 -0,142 -0,14 -0,14 -0,14 -0,14 -0,14 -0,14 -0,14 -0,142 -0,142 -0,144 -0,146 -0,146 -0,148 -0,148 -0,15 -0,15 -0,15 -0,15 -0,148 -0,148 -0,148 -0,146 -0,146 -0,146 -0,146 -0,144 -0,144 -0,142 -0,14 -0,138 -0,136 -0,134 -0,13 -0,128 -0,124 -0,122 -0,118 -0,114 -0,112 -0,11 -0,106 -0,102 -0,098 -0,094 -0,09 -0,086 -0,084 -0,08 -0,076 -0,072 -0,068 -0,064 -0,06 -0,056 -0,052 -0,048 -0,044 -0,04 -0,036 -0,034 -0,03 -0,028 -0,026 -0,024 -0,024 -0,022 -0,022 -0,022 -0,02 -0,02 -0,02 -0,018 -0,018 -0,018 -0,016 -0,016 -0,014 -0,014 -0,012 -0,012 -0,012 -0,01 -0,01 -0,01 -0,008 -0,008 -0,008 -0,008 -0,006 -0,006 -0,006 -0,006 -0,006 -0,006 -0,006 -0,006 -0,006 -0,006 -0,006 -0,008 -0,01 -0,01 -0,012 -0,012 -0,012 -0,012 -0,012 -0,012 -0,012 -0,012 -0,012 -0,012 -0,012 -0,012 -0,012 -0,012 -0,012 -0,01 -0,01 -0,01 -0,01 -0,008 -0,008 -0,006 -0,006 -0,004 -0,002 0 0,002 0,004 0,006 0,008 0,008 0,01 0,012 0,014 0,016 0,018 0,018 0,018 0,02 0,02 0,022 0,022 0,024 0,024 0,026 0,026 0,028 0,028 0,028 0,03 0,03 0,03 0,032 0,032 0,034 0,036 0,038 0,038 0,04 0,042 0,044 0,044 0,046 0,048 0,048 0,05 0,052 0,052 0,054 0,056 0,056 0,058 0,06 0,062 0,064 0,064 0,066 0,066 0,068 0,068 0,07 0,072 0,074 0,074 0,076 0,078 0,08 0,08 0,082 0,082 0,084 0,084 0,084 0,084 0,086 0,086 0,088 0,088 0,09 0,092 0,094 0,096 0,096 0,098 0,098 0,1 0,1 0,098 0,098 0,098 0,096 0,094 0,094 0,092 0,092 0,092 0,092 0,092 0,092 0,092 0,092 0,092 0,092 0,09 0,09 0,09 0,088 0,088 0,09 0,09 0,092 0,092 0,094 0,094 0,094 0,096 0,096 0,096 0,096 0,096 0,096 0,096 0,096 0,096 0,096 0,096 0,096 0,094 0,094 0,092 0,09 0,088 0,086 0,084 0,082 0,082 0,082 0,082 0,084 0,084 0,086 0,086 0,088 0,088 0,09 0,09 0,09 0,092 0,092 0,092 0,092 0,092 0,092 0,092 0,092 0,092 0,09 0,09 0,088 0,088 0,088 0,086 0,086 0,086 0,084 0,082 0,08 0,078 0,074 0,072 0,07 0,066 0,064 0,06 0,058 0,056 0,052 0,05 0,048 0,046 0,042 0,04 0,038 0,036 0,034 0,03 0,03 0,028 0,026 0,024 0,024 0,024 0,022 0,022 0,022 0,02 0,02 0,02 0,018 0,018 0,018 0,016 0,016 0,014 0,012 0,01 0,008 0,006 0,004 0,002 0 0 0 -0,002 -0,002 -0,002 -0,002 -0,002 -0,002 -0,002 -0,002 -0,004 -0,004 -0,004 -0,006 -0,008 -0,008 -0,01 -0,012 -0,014 -0,016 -0,018 -0,018 -0,02 -0,02 -0,02 -0,022 -0,022 -0,022 -0,024 -0,024 -0,024 -0,026 -0,026 -0,026 -0,026 -0,028 -0,028 -0,028 -0,03 -0,03 -0,03 -0,03 -0,028 -0,028 -0,028 -0,028 -0,028 -0,028 -0,028 -0,026 -0,026 -0,024 -0,022 -0,022 -0,02 -0,018 -0,018 -0,016 -0,016 -0,014 -0,012 -0,012 -0,01 -0,008 -0,006 -0,004 -0,004 -0,002 0 0 0 0 0 0 -0,002 -0,002 -0,002 -0,002 -0,002 -0,002 -0,002 0 0 0 0 0 0 0 0 0 0 -0,002 -0,002 -0,004 -0,006 -0,006 -0,008 -0,008 -0,008 -0,01 -0,01 -0,01 -0,01 -0,01 -0,012 -0,012 -0,012 -0,012 -0,012 -0,012 -0,012 -0,012 -0,012 -0,012 -0,012 -0,012 -0,014 -0,014 -0,014 -0,016 -0,016 -0,016 -0,016 -0,016 -0,016 -0,016 -0,016 -0,016 -0,014 -0,014 -0,012 -0,012 -0,01 -0,01 -0,008 -0,008 -0,008 -0,008 -0,008 -0,008 -0,008 -0,008 -0,008 -0,01 -0,012 -0,012 -0,014 -0,016 -0,018 -0,02 -0,02 -0,022 -0,022 -0,022 -0,022 -0,022 -0,022 -0,024 -0,024 -0,024 -0,022 -0,022 -0,02 -0,02 -0,018 -0,018 -0,016 -0,016 -0,016 -0,014 -0,014 -0,014 -0,014 -0,012 -0,012 -0,012 -0,012 -0,01 -0,01 -0,008 -0,008 -0,008 -0,008 -0,006 -0,006 -0,006 -0,006 -0,006 -0,006 -0,006 -0,006 -0,006 -0,006 -0,006 -0,006 -0,006 -0,006 -0,006 -0,004 -0,004 -0,004 -0,004 -0,004 -0,006 -0,006 -0,008 -0,01 -0,01 -0,012 -0,014 -0,014 -0,014 -0,016 -0,016 -0,016 -0,016 -0,016 -0,018 -0,018 -0,018 -0,018 -0,018 -0,016 -0,016 -0,016 -0,016 -0,014 -0,014 -0,012 -0,012 -0,012 -0,012 -0,012 -0,012 -0,012 -0,012 -0,012 -0,012 -0,014 -0,014 -0,014 -0,012 -0,012 -0,012 -0,012 -0,014 -0,014 -0,014 -0,016 -0,016 -0,016 -0,016 -0,016 -0,018 -0,018 -0,018 -0,018 -0,018 -0,02 -0,02 -0,022 -0,022 -0,022 -0,024 -0,024 -0,024 -0,024 -0,024 -0,024 -0,024 -0,024 -0,024 -0,024 -0,024 -0,026 -0,026 -0,026 -0,026 -0,026 -0,026 -0,024 -0,024 -0,022 -0,02 -0,018 -0,016 -0,014 -0,012 -0,012 -0,01 -0,008 -0,008 -0,006 -0,006 -0,004 -0,004 -0,004 -0,004 -0,004 -0,004 -0,004 -0,004 -0,004 -0,004 -0,004 -0,004 -0,004 -0,004 -0,004 -0,004 -0,004 -0,006 -0,006 -0,006 -0,008 -0,008 -0,01 -0,01 -0,012 -0,012 -0,014 -0,014 -0,016 -0,016 -0,016 -0,018 -0,018 -0,018 -0,018 -0,018 -0,018 -0,016 -0,014 -0,014 -0,012 -0,01 -0,008 -0,008 -0,006 -0,006 -0,006 -0,006 -0,006 -0,006 -0,006 -0,006 -0,006 -0,008 -0,008 -0,008 -0,01 -0,01 -0,01 -0,01 -0,01 -0,01 -0,01 -0,01 -0,01 -0,01 -0,01 -0,01 -0,01 -0,012 -0,012 -0,012 -0,012 -0,012 -0,012 -0,014 -0,014 -0,014 -0,016 -0,016 -0,016 -0,018 -0,02 -0,022 -0,024 -0,026 -0,026 -0,028 -0,03 -0,03 -0,03 -0,03 -0,03 -0,03 -0,03 -0,03 -0,03 -0,03 -0,03 -0,03 -0,03 -0,03 -0,03 -0,03 -0,03 -0,028 -0,028 -0,026 -0,026 -0,026 -0,024 -0,022 -0,022 -0,02 -0,02 -0,018 -0,018 -0,018 -0,018 -0,016 -0,016 -0,016 -0,014 -0,014 -0,012 -0,012 -0,01 -0,008 -0,008 -0,006 -0,006 -0,004 -0,004 -0,004 -0,004 -0,006 -0,006 -0,008 -0,008 -0,008 -0,008 -0,01 -0,01 -0,01 -0,01 -0,01 -0,012 -0,014 -0,016 -0,018 -0,02 -0,022 -0,024 -0,026 -0,026 -0,028 -0,028 -0,028 -0,026 -0,026 -0,024 -0,024 -0,024 -0,022 -0,022 -0,022 -0,024 -0,024 -0,024 -0,024 -0,024 -0,026 -0,026 -0,024 -0,024 -0,022 -0,022 -0,02 -0,02 -0,018 -0,018 -0,016 -0,016 -0,014 -0,014 -0,014 -0,014 -0,014 -0,016 -0,016 -0,018 -0,02 -0,022 -0,024 -0,026 -0,026 -0,028 -0,03 -0,032 -0,032 -0,034 -0,034 -0,034 -0,034 -0,034 -0,034 -0,034 -0,032 -0,032 -0,032 -0,032 -0,032 -0,032 -0,03 -0,03 -0,03 -0,03 -0,03 -0,028 -0,028 -0,028 -0,026 -0,026 -0,024 -0,024 -0,024 -0,024 -0,024 -0,024 -0,024 -0,024 -0,024 -0,022 -0,02 -0,02 -0,018 -0,016 -0,014 -0,012 -0,008 -0,006 -0,002 0,002 0,008 0,014 0,022 0,032 0,042 0,052 0,064 0,076 0,088 0,102 0,114 0,128 0,14 0,152 0,164 0,178 0,188 0,2 0,21 0,22 0,228 0,234 0,24 0,242 0,244 0,244 0,244 0,24 0,238 0,232 0,226 0,218 0,21 0,2 0,188 0,176 0,164 0,15 0,136 0,12 0,104 0,088 0,072 0,054 0,038 0,022 0,006 -0,008 -0,022 -0,034 -0,046 -0,058 -0,068 -0,078 -0,086 -0,094 -0,1 -0,106 -0,112 -0,116 -0,12 -0,124 -0,128 -0,13 -0,132 -0,134 -0,134 -0,136 -0,136 -0,136 -0,138 -0,138 -0,14 -0,14 -0,142 -0,144 -0,144 -0,148 -0,15 -0,152 -0,154 -0,156 -0,156 -0,158 -0,158 -0,16 -0,16 -0,162 -0,162 -0,162 -0,162 -0,16 -0,158 -0,156 -0,154 -0,152 -0,15 -0,146 -0,144 -0,142 -0,138 -0,136 -0,132 -0,13 -0,126 -0,122 -0,12 -0,116 -0,112 -0,108 -0,104 -0,1 -0,096 -0,092 -0,088 -0,084 -0,08 -0,078 -0,074 -0,07 -0,066 -0,062 -0,058 -0,056 -0,052 -0,048 -0,046 -0,042 -0,04 -0,038 -0,038 -0,036 -0,036 -0,034 -0,034 -0,032 -0,032 -0,032 -0,03 -0,03 -0,03 -0,03 -0,03 -0,03 -0,028 -0,028 -0,026 -0,026 -0,024 -0,022 -0,02 -0,018 -0,018 -0,016 -0,016 -0,014 -0,014 -0,012 -0,012 -0,01 -0,008 -0,008 -0,006 -0,004 -0,004 -0,002 -0,002 0 0 0 0 0 0 0 0 0 0 0,002 0,002 0,002 0,002 0,002 0,002 0,002 0,002 0 0 0 0 0 0 0 0 0,002 0,002 0,002 0,002 0,004 0,004 0,004 0,006 0,006 0,006 0,008 0,008 0,008 0,01 0,01 0,012 0,012 0,014 0,014 0,016 0,016 0,018 0,018 0,02 0,022 0,022 0,024 0,024 0,026 0,026 0,028 0,03 0,034 0,036 0,038 0,04 0,042 0,044 0,046 0,048 0,048 0,05 0,052 0,052 0,054 0,054 0,056 0,056 0,058 0,058 0,06 0,06 0,06 0,062 0,062 0,062 0,064 0,064 0,066 0,068 0,07 0,07 0,072 0,074 0,076 0,078 0,08 0,082 0,082 0,084 0,084 0,084 0,084 0,086 0,086 0,086 0,086 0,084 0,084 0,084 0,082 0,082 0,082 0,08 0,08 0,08 0,082 0,082 0,082 0,084 0,086 0,088 0,088 0,09 0,09 0,092 0,092 0,094 0,094 0,096 0,098 0,098 0,1 0,102 0,102 0,104 0,104 0,104 0,104 0,104 0,104 0,104 0,104 0,104 0,102 0,102 0,102 0,102 0,102 0,1 0,1 0,098 0,096 0,096 0,094 0,092 0,09 0,088 0,084 0,082 0,08 0,08 0,08 0,078 0,078 0,078 0,08 0,08 0,082 0,084 0,086 0,088 0,088 0,09 0,09 0,09 0,088 0,088 0,088 0,088 0,088 0,09 0,09 0,09 0,088 0,088 0,086 0,086 0,084 0,082 0,08 0,08 0,078 0,078 0,078 0,076 0,076 0,074 0,072 0,072 0,07 0,066 0,064 0,062 0,06 0,058 0,056 0,054 0,052 0,05 0,048 0,046 0,042 0,04 0,038 0,036 0,036 0,034 0,034 0,032 0,032 0,032 0,03 0,03 0,028 0,028 0,026 0,026 0,024 0,022 0,022 0,02 0,02 0,018 0,016 0,016 0,014 0,012 0,01 0,008 0,006 0,006 0,004 0,002 0 0 -0,002 -0,004 -0,004 -0,006 -0,006 -0,008 -0,008 -0,008 -0,008 -0,01 -0,01 -0,01 -0,01 -0,01 -0,01 -0,01 -0,01 -0,01 -0,01 -0,012 -0,014 -0,014 -0,016 -0,016 -0,016 -0,016 -0,016 -0,014 -0,014 -0,014 -0,014 -0,014 -0,014 -0,014 -0,012 -0,012 -0,01 -0,008 -0,006 -0,004 -0,004 -0,002 -0,002 0 0 0 0 0 0 0 0 -0,002 -0,004 -0,004 -0,006 -0,006 -0,008 -0,008 -0,008 -0,008 -0,01 -0,01 -0,01 -0,01 -0,01 -0,008 -0,008 -0,006 -0,004 -0,004 -0,002 0 0 0,002 0,004 0,004 0,004 0,004 0,004 0,004 0,004 0,004 0,004 0,002 0 0 -0,002 -0,004 -0,004 -0,006 -0,006 -0,006 -0,004 -0,004 -0,004 -0,002 -0,002 -0,002 -0,002 -0,002 -0,002 -0,002 -0,002 -0,002 -0,002 -0,002 -0,002 -0,004 -0,004 -0,006 -0,008 -0,008 -0,01 -0,01 -0,012 -0,012 -0,014 -0,016 -0,016 -0,016 -0,018 -0,018 -0,018 -0,018 -0,018 -0,018 -0,016 -0,018 -0,018 -0,018 -0,018 -0,018 -0,018 -0,018 -0,018 -0,018 -0,018 -0,018 -0,018 -0,016 -0,016 -0,014 -0,012 -0,012 -0,01 -0,01 -0,01 -0,008 -0,008 -0,008 -0,008 -0,008 -0,008 -0,008 -0,008 -0,008 -0,008 -0,008 -0,008 -0,008 -0,008 -0,008 -0,01 -0,012 -0,012 -0,012 -0,014 -0,016 -0,016 -0,018 -0,018 -0,02 -0,02 -0,022 -0,022 -0,022 -0,022 -0,022 -0,02 -0,02 -0,02 -0,02 -0,02 -0,022 -0,022 -0,022 -0,022 -0,022 -0,022 -0,022 -0,022 -0,022 -0,022 -0,022 -0,02 -0,02 -0,018 -0,018 -0,018 -0,016 -0,016 -0,016 -0,016 -0,016 -0,016 -0,016 -0,016 -0,016 -0,016 -0,016 -0,016 -0,018 -0,018 -0,02 -0,02 -0,022 -0,024 -0,026 -0,028 -0,03 -0,032 -0,032 -0,034 -0,034 -0,034 -0,034 -0,034 -0,034 -0,034 -0,034 -0,034 -0,032 -0,032 -0,03 -0,028 -0,026 -0,024 -0,022 -0,02 -0,02 -0,018 -0,018 -0,018 -0,018 -0,018 -0,018 -0,02 -0,02 -0,022 -0,022 -0,022 -0,024 -0,024 -0,026 -0,026 -0,028 -0,028 -0,03 -0,03 -0,032 -0,032 -0,032 -0,032 -0,032 -0,032 -0,032 -0,03 -0,03 -0,028 -0,026 -0,026 -0,024 -0,024 -0,024 -0,022 -0,022 -0,024 -0,024 -0,024 -0,024 -0,026 -0,026 -0,026 -0,028 -0,028 -0,03 -0,03 -0,032 -0,034 -0,034 -0,034 -0,034 -0,034 -0,034 -0,034 -0,034 -0,032 -0,032 -0,03 -0,03 -0,03 -0,03 -0,03 -0,03 -0,03 -0,03 -0,03 -0,028 -0,028 -0,026 -0,026 -0,024 -0,024 -0,024 -0,024 -0,024 -0,024 -0,024 -0,024 -0,026 -0,026 -0,028 -0,028 -0,03 -0,032 -0,032 -0,03 -0,028 -0,026 -0,024 -0,022 -0,02 -0,018 -0,016 -0,016 -0,016 -0,016 -0,018 -0,018 -0,018 -0,02 -0,02 -0,02 -0,022 -0,022 -0,024 -0,024 -0,024 -0,026 -0,026 -0,026 -0,026 -0,026 -0,028 -0,028 -0,028 -0,026 -0,026 -0,026 -0,026 -0,026 -0,024 -0,022 -0,022 -0,02 -0,018 -0,016 -0,016 -0,014 -0,014 -0,014 -0,014 -0,014 -0,014 -0,014 -0,016 -0,016 -0,018 -0,018 -0,02 -0,022 -0,022 -0,024 -0,026 -0,026 -0,028 -0,028 -0,03 -0,03 -0,032 -0,034 -0,034 -0,034 -0,034 -0,034 -0,034 -0,032 -0,032 -0,03 -0,028 -0,028 -0,026 -0,026 -0,024 -0,024 -0,024 -0,024 -0,026 -0,026 -0,026 -0,026 -0,028 -0,028 -0,028 -0,028 -0,026 -0,026 -0,026 -0,026 -0,026 -0,028 -0,028 -0,03 -0,03 -0,03 -0,03 -0,03 -0,03 -0,03 -0,03 -0,03 -0,032 -0,032 -0,032 -0,032 -0,032 -0,032 -0,03 -0,03 -0,03 -0,03 -0,03 -0,03 -0,03 -0,03 -0,028 -0,028 -0,028 -0,028 -0,026 -0,026 -0,026 -0,026 -0,026 -0,026 -0,026 -0,026 -0,028 -0,028 -0,03 -0,03 -0,03 -0,03 -0,03 -0,03 -0,03 -0,03 -0,03 -0,03 -0,03 -0,03 -0,028 -0,028 -0,03 -0,03 -0,03 -0,03 -0,03 -0,03 -0,03 -0,03 -0,03 -0,028 -0,028 -0,026 -0,026 -0,024 -0,024 -0,022 -0,022 -0,022 -0,022 -0,022 -0,022 -0,022 -0,022 -0,022 -0,022 -0,02 -0,02 -0,02 -0,02 -0,02 -0,02 -0,022 -0,022 -0,024 -0,026 -0,028 -0,03 -0,032 -0,032 -0,034 -0,034 -0,034 -0,034 -0,034 -0,034 -0,034 -0,034 -0,034 -0,032 -0,032 -0,032 -0,032 -0,032 -0,032 -0,032 -0,032 -0,03 -0,03 -0,028 -0,026 -0,022 -0,018 -0,012 -0,008 0 0,006 0,014 0,022 0,032 0,044 0,054 0,066 0,08 0,092 0,106 0,12 0,134 0,148 0,16 0,172 0,184 0,194 0,204 0,212 0,22 0,228 0,232 0,236 0,24 0,242 0,242 0,24 0,238 0,234 0,228 0,222 0,214 0,206 0,196 0,184 0,172 0,158 0,142 0,126 0,11 0,092 0,076 0,058 0,042 0,026 0,01 -0,004 -0,02 -0,034 -0,046 -0,058 -0,07 -0,08 -0,09 -0,098 -0,106 -0,114 -0,12 -0,126 -0,13 -0,134 -0,136 -0,138 -0,14 -0,142 -0,144 -0,146 -0,148 -0,152 -0,154 -0,156 -0,158 -0,16 -0,164 -0,166 -0,168 -0,168 -0,17 -0,17 -0,17 -0,17 -0,168 -0,166 -0,164 -0,162 -0,16 -0,158 -0,156 -0,154 -0,152 -0,152 -0,15 -0,148 -0,148 -0,146 -0,144 -0,142 -0,142 -0,14 -0,136 -0,134 -0,132 -0,128 -0,124 -0,12 -0,116 -0,112 -0,108 -0,102 -0,098 -0,094 -0,09 -0,084 -0,08 -0,076 -0,072 -0,07 -0,066 -0,064 -0,06 -0,058 -0,054 -0,052 -0,05 -0,048 -0,044 -0,042 -0,038 -0,036 -0,032 -0,028 -0,026 -0,022 -0,02 -0,018 -0,018 -0,016 -0,014 -0,014 -0,014 -0,014 -0,014 -0,014 -0,014 -0,014 -0,014 -0,014 -0,014 -0,014 -0,014 -0,014 -0,014 -0,014 -0,012 -0,012 -0,012 -0,01 -0,01 -0,008 -0,008 -0,006 -0,006 -0,006 -0,004 -0,004 -0,004 -0,002 -0,002 -0,002 -0,002 -0,002 -0,002 -0,004 -0,004 -0,004 -0,004 -0,004 -0,004 -0,004 -0,002 -0,002 -0,002 -0,002 0 0 0 0 0 0 0 0 0,002 0,002 0,004 0,004 0,006 0,006 0,008 0,008 0,008 0,01 0,012 0,012 0,014 0,016 0,018 0,02 0,02 0,022 0,024 0,026 0,026 0,026 0,026 0,026 0,026 0,028 0,028 0,03 0,03 0,032 0,034 0,036 0,038 0,04 0,04 0,042 0,042 0,044 0,044 0,044 0,046 0,046 0,048 0,048 0,05 0,05 0,052 0,054 0,054 0,056 0,056 0,056 0,058 0,058 0,06 0,062 0,064 0,066 0,068 0,07 0,072 0,074 0,076 0,078 0,08 0,082 0,084 0,084 0,086 0,088 0,09 0,09 0,092 0,094 0,096 0,096 0,098 0,098 0,096 0,096 0,096 0,096 0,096 0,096 0,094 0,094 0,094 0,092 0,092 0,092 0,092 0,09 0,09 0,092 0,092 0,094 0,096 0,098 0,1 0,102 0,104 0,104 0,106 0,108 0,108 0,11 0,112 0,112 0,114 0,114 0,114 0,114 0,116 0,116 0,116 0,118 0,118 0,118 0,12 0,12 0,122 0,122 0,122 0,122 0,122 0,122 0,122 0,122 0,122 0,122 0,12 0,12 0,118 0,116 0,114 0,112 0,108 0,106 0,104 0,102 0,1 0,098 0,096 0,094 0,092 0,09 0,088 0,088 0,086 0,086 0,086 0,084 0,084 0,084 0,082 0,082 0,08 0,078 0,078 0,076 0,074 0,072 0,072 0,07 0,07 0,068 0,066 0,066 0,066 0,064 0,064 0,062 0,06 0,06 0,058 0,056 0,056 0,054 0,052 0,052 0,05 0,05 0,05 0,05 0,048 0,048 0,046 0,046 0,044 0,042 0,04 0,038 0,034 0,032 0,03 0,026 0,024 0,022 0,022 0,02 0,02 0,02 0,018 0,02 0,02 0,02 0,02 0,018 0,018 0,016 0,016 0,014 0,012 0,012 0,01 0,008 0,008 0,008 0,008 0,008 0,008 0,008 0,008 0,008 0,008 0,008 0,008 0,008 0,008 0,006 0,004 0,004 0,002 0 0 -0,002 -0,004 -0,004 -0,006 -0,006 -0,008 -0,008 -0,01 -0,012 -0,012 -0,014 -0,014 -0,016 -0,016 -0,016 -0,016 -0,018 -0,018 -0,018 -0,02 -0,02 -0,022 -0,022 -0,024 -0,024 -0,024 -0,024 -0,024 -0,024 -0,024 -0,022 -0,022 -0,022 -0,02 -0,02 -0,018 -0,016 -0,014 -0,012 -0,01 -0,008 -0,006 -0,004 -0,002 0 0 0 0 0 -0,002 -0,002 -0,004 -0,006 -0,008 -0,01 -0,01 -0,012 -0,014 -0,014 -0,016 -0,016 -0,018 -0,018 -0,018 -0,018 -0,016 -0,016 -0,014 -0,012 -0,012 -0,01 -0,01 -0,008 -0,008 -0,008 -0,006 -0,006 -0,006 -0,006 -0,006 -0,004 -0,004 -0,004 -0,004 -0,004 -0,002 -0,002 -0,002 0 0 0 0,002 0,002 0,004 0,004 0,004 0,004 0,004 0,004 0,002 0,002 0,002 0,002 0 0 0 0 0 0 0 0 0 -0,002 -0,002 -0,004 -0,004 -0,006 -0,006 -0,008 -0,008 -0,01 -0,01 -0,012 -0,012 -0,014 -0,014 -0,016 -0,016 -0,016 -0,016 -0,018 -0,018 -0,018 -0,02 -0,02 -0,022 -0,022 -0,024 -0,024 -0,026 -0,026 -0,024 -0,024 -0,024 -0,024 -0,024 -0,024 -0,022 -0,022 -0,022 -0,022 -0,022 -0,022 -0,02 -0,02 -0,02 -0,02 -0,02 -0,018 -0,018 -0,016 -0,016 -0,014 -0,012 -0,012 -0,01 -0,01 -0,008 -0,008 -0,008 -0,008 -0,008 -0,008 -0,008 -0,008 -0,008 -0,008 -0,008 -0,01 -0,01 -0,01 -0,01 -0,012 -0,012 -0,012 -0,012 -0,012 -0,012 -0,012 -0,012 -0,012 -0,012 -0,012 -0,012 -0,012 -0,012 -0,012 -0,012 -0,012 -0,014 -0,014 -0,014 -0,016 -0,016 -0,016 -0,018 -0,02 -0,02 -0,022 -0,024 -0,024 -0,024 -0,026 -0,026 -0,026 -0,026 -0,026 -0,026 -0,024 -0,026 -0,026 -0,026 -0,026 -0,026 -0,026 -0,026 -0,026 -0,028 -0,028 -0,028 -0,03 -0,032 -0,032 -0,034 -0,034 -0,034 -0,036 -0,036 -0,036 -0,036 -0,036 -0,036 -0,036 -0,036 -0,036 -0,034 -0,034 -0,034 -0,032 -0,032 -0,03 -0,03 -0,028 -0,028 -0,028 -0,026 -0,026 -0,026 -0,028 -0,028 -0,03 -0,03 -0,03 -0,03 -0,028 -0,028 -0,026 -0,024 -0,022 -0,02 -0,02 -0,018 -0,018 -0,016 -0,016 -0,016 -0,016 -0,014 -0,014 -0,014 -0,014 -0,014 -0,014 -0,016 -0,016 -0,018 -0,018 -0,02 -0,022 -0,022 -0,024 -0,026 -0,028 -0,028 -0,03 -0,03 -0,03 -0,03 -0,03 -0,032 -0,032 -0,032 -0,034 -0,034 -0,034 -0,036 -0,036 -0,036 -0,034 -0,034 -0,032 -0,03 -0,028 -0,026 -0,026 -0,024 -0,024 -0,022 -0,022 -0,022 -0,022 -0,022 -0,02 -0,02 -0,02 -0,02 -0,02 -0,02 -0,02 -0,02 -0,02 -0,02 -0,02 -0,02 -0,02 -0,02 -0,02 -0,02 -0,022 -0,022 -0,024 -0,026 -0,026 -0,028 -0,028 -0,028 -0,028 -0,028 -0,026 -0,026 -0,026 -0,024 -0,024 -0,024 -0,022 -0,022 -0,022 -0,022 -0,022 -0,022 -0,024 -0,024 -0,026 -0,028 -0,028 -0,028 -0,028 -0,026 -0,026 -0,024 -0,022 -0,02 -0,02 -0,018 -0,018 -0,018 -0,018 -0,018 -0,018 -0,018 -0,02 -0,02 -0,02 -0,02 -0,02 -0,02 -0,02 -0,02 -0,02 -0,022 -0,022 -0,022 -0,022 -0,022 -0,022 -0,022 -0,02 -0,02 -0,02 -0,02 -0,02 -0,018 -0,018 -0,018 -0,018 -0,016 -0,016 -0,014 -0,014 -0,012 -0,012 -0,012 -0,012 -0,012 -0,012 -0,012 -0,012 -0,012 -0,014 -0,014 -0,014 -0,014 -0,014 -0,014 -0,016 -0,016 -0,016 -0,016 -0,016 -0,018 -0,018 -0,02 -0,022 -0,022 -0,024 -0,026 -0,028 -0,03 -0,032 -0,034 -0,034 -0,036 -0,036 -0,036 -0,036 -0,036 -0,036 -0,036 -0,036 -0,036 -0,036 -0,034 -0,034 -0,032 -0,032 -0,03 -0,03 -0,028 -0,028 -0,028 -0,028 -0,028 -0,028 -0,028 -0,028 -0,028 -0,03 -0,032 -0,034 -0,036 -0,036 -0,038 -0,038 -0,038 -0,036 -0,036 -0,034 -0,034 -0,032 -0,03 -0,03 -0,028 -0,028 -0,028 -0,028 -0,028 -0,028 -0,028 -0,028 -0,028 -0,028 -0,028 -0,026 -0,026 -0,026 -0,024 -0,024 -0,024 -0,022 -0,022 -0,022 -0,024 -0,024 -0,024 -0,024 -0,026 -0,026 -0,026 -0,028 -0,028 -0,028 -0,028 -0,028 -0,03 -0,028 -0,028 -0,028 -0,028 -0,028 -0,028 -0,028 -0,028 -0,028 -0,028 -0,026 -0,026 -0,024 -0,022 -0,02 -0,018 -0,014 -0,012 -0,008 -0,002 0,004 0,01 0,02 0,03 0,04 0,05 0,062 0,074 0,086 0,096 0,108 0,12 0,132 0,144 0,156 0,168 0,18 0,192 0,204 0,214 0,224 0,234 0,242 0,248 0,252 0,256 0,258 0,258 0,258 0,256 0,252 0,244 0,236 0,226 0,214 0,202 0,186 0,17 0,154 0,136 0,116 0,098 0,078 0,06 0,042 0,024 0,006 -0,008 -0,024 -0,038 -0,052 -0,064 -0,074 -0,084 -0,094 -0,102 -0,11 -0,118 -0,124 -0,13 -0,136 -0,142 -0,146 -0,15 -0,152 -0,154 -0,154 -0,154 -0,154 -0,152 -0,152 -0,152 -0,152 -0,152 -0,152 -0,154 -0,154 -0,156 -0,156 -0,156 -0,156 -0,154 -0,154 -0,152 -0,15 -0,148 -0,146 -0,144 -0,142 -0,14 -0,138 -0,136 -0,134 -0,134 -0,132 -0,132 -0,132 -0,132 -0,132 -0,132 -0,13 -0,13 -0,13 -0,128 -0,126 -0,124 -0,12 -0,118 -0,114 -0,112 -0,108 -0,104 -0,1 -0,096 -0,09 -0,086 -0,08 -0,074 -0,068 -0,062 -0,056 -0,05 -0,046 -0,042 -0,038 -0,034 -0,03 -0,028 -0,026 -0,024 -0,022 -0,02 -0,02 -0,02 -0,018 -0,018 -0,02 -0,02 -0,02 -0,02 -0,022 -0,022 -0,024 -0,026 -0,026 -0,024 -0,024 -0,024 -0,022 -0,022 -0,02 -0,02 -0,02 -0,02 -0,02 -0,018 -0,018 -0,016 -0,016 -0,014 -0,012 -0,01 -0,008 -0,006 -0,004 -0,002 0 0 0,002 0,004 0,006 0,008 0,01 0,012 0,012 0,014 0,016 0,016 0,016 0,016 0,014 0,014 0,014 0,012 0,012 0,012 0,012 0,012 0,012 0,012 0,012 0,012 0,012 0,012 0,014 0,014 0,016 0,016 0,016 0,018 0,018 0,02 0,02 0,022 0,022 0,024 0,024 0,026 0,026 0,026 0,028 0,028 0,03 0,03 0,032 0,034 0,036 0,038 0,04 0,044 0,046 0,048 0,05 0,052 0,054 0,056 0,058 0,058 0,06 0,06 0,06 0,06 0,06 0,058 0,058 0,058 0,058 0,06 0,06 0,06 0,062 0,062 0,064 0,064 0,064 0,064 0,066 0,068 0,07 0,07 0,072 0,074 0,076 0,076 0,078 0,078 0,08 0,08 0,082 0,084 0,086 0,086 0,088 0,088 0,09 0,09 0,09 0,09 0,09 0,09 0,09 0,09 0,09 0,092 0,092 0,092 0,094 0,096 0,098 0,1 0,102 0,104 0,104 0,106 0,108 0,108 0,108 0,108 0,106 0,104 0,104 0,102 0,102 0,1 0,1 0,1 0,1 0,102 0,102 0,102 0,104 0,104 0,106 0,106 0,108 0,108 0,108 0,108 0,108 0,108 0,108 0,108 0,108 0,108 0,108 0,108 0,108 0,108 0,108 0,108 0,11 0,11 0,11 0,11 0,11 0,108 0,108 0,106 0,104 0,104 0,102 0,102 0,1 0,1 0,098 0,096 0,096 0,094 0,092 0,09 0,09 0,088 0,088 0,088 0,088 0,086 0,086 0,084 0,082 0,08 0,078 0,076 0,074 0,072 0,07 0,068 0,066 0,066 0,064 0,062 0,06 0,058 0,056 0,054 0,052 0,05 0,048 0,046 0,044 0,044 0,042 0,042 0,042 0,04 0,038 0,038 0,036 0,034 0,032 0,03 0,03 0,028 0,026 0,026 0,024 0,024 0,022 0,022 0,022 0,022 0,022 0,02 0,02 0,018 0,016 0,012 0,01 0,008 0,008 0,006 0,004 0,002 0,002 0,002 0,002 0,002 0,002 0,002 0,002 0,002 0,002 0,002 0,002 0,002 0,004 0,004 0,004 0,004 0,002 0,002 0 0 -0,002 -0,004 -0,006 -0,008 -0,01 -0,01 -0,012 -0,012 -0,014 -0,014 -0,014 -0,014 -0,016 -0,016 -0,016 -0,016 -0,016 -0,018 -0,018 -0,018 -0,018 -0,018 -0,02 -0,02 -0,022 -0,022 -0,022 -0,022 -0,024 -0,024 -0,024 -0,026 -0,026 -0,026 -0,024 -0,024 -0,024 -0,024 -0,024 -0,024 -0,024 -0,024 -0,022 -0,022 -0,022 -0,02 -0,02 -0,02 -0,018 -0,018 -0,018 -0,018 -0,016 -0,016 -0,016 -0,016 -0,016 -0,016 -0,016 -0,016 -0,016 -0,016 -0,016 -0,014 -0,014 -0,014 -0,012 -0,012 -0,012 -0,012 -0,012 -0,012 -0,012 -0,012 -0,014 -0,014 -0,014 -0,014 -0,014 -0,014 -0,014 -0,016 -0,016 -0,018 -0,018 -0,02 -0,022 -0,022 -0,022 -0,022 -0,02 -0,02 -0,018 -0,018 -0,016 -0,016 -0,016 -0,016 -0,016 -0,016 -0,014 -0,014 -0,014 -0,014 -0,014 -0,014 -0,014 -0,014 -0,014 -0,016 -0,016 -0,018 -0,02 -0,02 -0,022 -0,022 -0,022 -0,022 -0,022 -0,022 -0,022 -0,022 -0,022 -0,02 -0,02 -0,02 -0,02 -0,02 -0,02 -0,02 -0,02 -0,02 -0,018 -0,018 -0,018 -0,018 -0,018 -0,018 -0,018 -0,016 -0,016 -0,016 -0,014 -0,014 -0,012 -0,012 -0,012 -0,012 -0,01 -0,01 -0,01 -0,012 -0,012 -0,012 -0,014 -0,014 -0,016 -0,018 -0,018 -0,02 -0,022 -0,024 -0,024 -0,026 -0,026 -0,028 -0,028 -0,03 -0,03 -0,03 -0,03 -0,03 -0,03 -0,03 -0,03 -0,03 -0,032 -0,032 -0,032 -0,032 -0,03 -0,03 -0,028 -0,028 -0,026 -0,024 -0,022 -0,02 -0,018 -0,016 -0,016 -0,014 -0,014 -0,014 -0,014 -0,014 -0,014 -0,014 -0,014 -0,014 -0,014 -0,016 -0,016 -0,016 -0,016 -0,016 -0,016 -0,016 -0,016 -0,014 -0,014 -0,014 -0,014 -0,014 -0,016 -0,016 -0,018 -0,018 -0,02 -0,022 -0,022 -0,024 -0,026 -0,028 -0,028 -0,03 -0,03 -0,032 -0,034 -0,034 -0,034 -0,034 -0,034 -0,034 -0,032 -0,03 -0,03 -0,028 -0,028 -0,028 -0,026 -0,026 -0,026 -0,026 -0,026 -0,026 -0,026 -0,026 -0,026 -0,028 -0,028 -0,028 -0,03 -0,03 -0,03 -0,03 -0,03 -0,03 -0,03 -0,03 -0,032 -0,032 -0,032 -0,032 -0,034 -0,034 -0,036 -0,036 -0,036 -0,036 -0,036 -0,036 -0,034 -0,034 -0,034 -0,034 -0,036 -0,036 -0,036 -0,036 -0,036 -0,034 -0,034 -0,034 -0,032 -0,032 -0,03 -0,03 -0,03 -0,03 -0,03 -0,028 -0,028 -0,028 -0,028 -0,028 -0,026 -0,026 -0,024 -0,024 -0,022 -0,02 -0,018 -0,016 -0,016 -0,016 -0,016 -0,016 -0,018 -0,018 -0,02 -0,02 -0,02 -0,022 -0,022 -0,022 -0,022 -0,02 -0,02 -0,018 -0,018 -0,018 -0,016 -0,016 -0,014 -0,014 -0,012 -0,012 -0,01 -0,01 -0,01 -0,01 -0,01 -0,01 -0,012 -0,012 -0,012 -0,012 -0,014 -0,014 -0,016 -0,018 -0,018 -0,02 -0,022 -0,022 -0,022 -0,022 -0,022 -0,02 -0,02 -0,018 -0,018 -0,018 -0,018 -0,016 -0,016 -0,018 -0,018 -0,018 -0,018 -0,018 -0,018 -0,016 -0,016 -0,016 -0,014 -0,014 -0,014 -0,014 -0,014 -0,014 -0,014 -0,014 -0,014 -0,014 -0,014 -0,014 -0,014 -0,016 -0,016 -0,018 -0,02 -0,022 -0,026 -0,026 -0,028 -0,03 -0,032 -0,032 -0,034 -0,034 -0,036 -0,036 -0,036 -0,036 -0,036 -0,036 -0,036 -0,036 -0,036 -0,034 -0,034 -0,034 -0,034 -0,034 -0,032 -0,032 -0,032 -0,032 -0,03 -0,03 -0,028 -0,026 -0,026 -0,024 -0,022 -0,02 -0,02 -0,018 -0,016 -0,014 -0,014 -0,012 -0,012 -0,01 -0,008 -0,008 -0,008 -0,006 -0,006 -0,006 -0,008 -0,008 -0,008 -0,01 -0,012 -0,012 -0,014 -0,016 -0,016 -0,016 -0,018 -0,018 -0,018 -0,018 -0,02 -0,02 -0,02 -0,022 -0,022 -0,022 -0,022 -0,022 -0,022 -0,024 -0,024 -0,024 -0,024 -0,026 -0,026 -0,028 -0,03 -0,032 -0,032 -0,034 -0,034 -0,036 -0,036 -0,036 -0,036 -0,036 -0,036 -0,034 -0,034 -0,034 -0,032 -0,032 -0,03 -0,028 -0,028 -0,026 -0,026 -0,026 -0,026 -0,024 -0,024 -0,022 -0,022 -0,022 -0,02 -0,02 -0,018 -0,018 -0,018 -0,018 -0,018 -0,018 -0,02 -0,02 -0,02 -0,02 -0,02 -0,018 -0,018 -0,018 -0,02 -0,02 -0,02 -0,022 -0,022 -0,022 -0,022 -0,024 -0,024 -0,024 -0,024 -0,024 -0,026 -0,028 -0,03 -0,03 -0,032 -0,032 -0,032 -0,032 -0,03 -0,03 -0,026 -0,024 -0,022 -0,018 -0,014 -0,01 -0,004 0,002 0,01 0,02 0,03 0,042 0,054 0,066 0,078 0,092 0,106 0,12 0,134 0,148 0,162 0,176 0,19 0,202 0,214 0,226 0,236 0,244 0,25 0,256 0,26 0,262 0,262 0,262 0,258 0,254 0,25 0,244 0,236 0,226 0,216 0,204 0,19 0,176 0,16 0,144 0,126 0,108 0,092 0,074 0,056 0,038 0,022 0,006 -0,008 -0,022 -0,034 -0,046 -0,058 -0,068 -0,078 -0,086 -0,094 -0,1 -0,108 -0,114 -0,118 -0,124 -0,128 -0,132 -0,136 -0,138 -0,138 -0,14 -0,14 -0,142 -0,144 -0,144 -0,146 -0,146 -0,148 -0,148 -0,148 -0,15 -0,15 -0,15 -0,15 -0,152 -0,152 -0,152 -0,152 -0,152 -0,152 -0,152 -0,152 -0,152 -0,154 -0,154 -0,154 -0,154 -0,154 -0,154 -0,154 -0,154 -0,154 -0,152 -0,152 -0,148 -0,146 -0,144 -0,14 -0,138 -0,134 -0,13 -0,126 -0,122 -0,118 -0,114 -0,11 -0,106 -0,102 -0,096 -0,092 -0,088 -0,082 -0,078 -0,072 -0,068 -0,064 -0,058 -0,056 -0,052 -0,05 -0,048 -0,046 -0,044 -0,042 -0,04 -0,036 -0,034 -0,032 -0,028 -0,028 -0,026 -0,024 -0,024 -0,022 -0,022 -0,02 -0,018 -0,018 -0,016 -0,012 -0,01 -0,008 -0,006 -0,004 -0,002 -0,002 -0,002 -0,002 -0,002 -0,004 -0,004 -0,004 -0,006 -0,006 -0,006 -0,006 -0,006 -0,006 -0,006 -0,006 -0,006 -0,006 -0,006 -0,004 -0,004 -0,004 -0,002 -0,002 -0,002 -0,002 -0,002 -0,002 -0,002 -0,002 -0,002 0 0 0 0 0 0,002 0,002 0,004 0,004 0,006 0,006 0,008 0,008 0,008 0,008 0,01 0,01 0,01 0,01 0,01 0,012 0,012 0,014 0,014 0,016 0,018 0,02 0,022 0,024 0,026 0,028 0,028 0,03 0,03 0,032 0,032 0,034 0,034 0,034 0,036 0,038 0,038 0,04 0,042 0,044 0,044 0,046 0,046 0,046 0,048 0,048 0,05 0,052 0,052 0,054 0,054 0,056 0,056 0,056 0,056 0,056 0,058 0,058 0,06 0,062 0,064 0,066 0,068 0,07 0,07 0,072 0,074 0,074 0,076 0,078 0,08 0,08 0,082 0,082 0,084 0,084 0,084 0,086 0,086 0,086 0,086 0,086 0,086 0,086 0,086 0,088 0,088 0,088 0,088 0,09 0,09 0,092 0,094 0,096 0,098 0,098 0,1 0,1 0,1 0,1 0,1 0,102 0,102 0,102 0,102 0,104 0,104 0,104 0,104 0,104 0,102 0,102 0,1 0,098 0,096 0,094 0,092 0,09 0,088 0,088 0,088 0,088 0,088 0,088 0,088 0,088 0,088 0,088 0,088 0,088 0,088 0,088 0,088 0,088 0,088 0,088 0,09 0,09 0,09 0,09 0,09 0,09 0,09 0,09 0,09 0,088 0,088 0,086 0,082 0,08 0,078 0,078 0,078 0,08 0,08 0,082 0,084 0,088 0,09 0,092 0,094 0,094 0,096 0,096 0,096 0,096 0,096 0,096 0,096 0,096 0,094 0,094 0,092 0,092 0,09 0,086 0,084 0,08 0,076 0,072 0,068 0,064 0,062 0,058 0,054 0,052 0,048 0,048 0,046 0,044 0,044 0,044 0,042 0,042 0,042 0,04 0,038 0,036 0,034 0,03 0,028 0,026 0,022 0,02 0,018 0,016 0,014 0,014 0,012 0,012 0,012 0,01 0,01 0,01 0,008 0,008 0,006 0,006 0,004 0,002 0 0 -0,002 -0,002 -0,004 -0,004 -0,006 -0,006 -0,008 -0,008 -0,01 -0,01 -0,01 -0,01 -0,012 -0,012 -0,014 -0,014 -0,014 -0,016 -0,016 -0,018 -0,02 -0,02 -0,022 -0,022 -0,02 -0,02 -0,018 -0,016 -0,016 -0,014 -0,012 -0,01 -0,01 -0,008 -0,008 -0,006 -0,006 -0,006 -0,008 -0,008 -0,008 -0,008 -0,008 -0,008 -0,008 -0,008 -0,008 -0,006 -0,006 -0,006 -0,004 -0,004 -0,004 -0,004 -0,004 -0,004 -0,004 -0,004 -0,004 -0,004 -0,004 -0,004 -0,004 -0,004 -0,006 -0,006 -0,008 -0,008 -0,008 -0,01 -0,01 -0,01 -0,012 -0,012 -0,014 -0,014 -0,014 -0,012 -0,012 -0,012 -0,012 -0,01 -0,01 -0,01 -0,008 -0,008 -0,006 -0,006 -0,006 -0,004 -0,004 -0,004 -0,004 -0,006 -0,006 -0,006 -0,006 -0,006 -0,006 -0,006 -0,006 -0,006 -0,006 -0,006 -0,006 -0,006 -0,006 -0,006 -0,006 -0,008 -0,008 -0,01 -0,01 -0,012 -0,012 -0,012 -0,014 -0,014 -0,016 -0,016 -0,016 -0,016 -0,016 -0,016 -0,016 -0,016 -0,016 -0,016 -0,016 -0,016 -0,016 -0,016 -0,016 -0,016 -0,016 -0,016 -0,016 -0,016 -0,014 -0,014 -0,014 -0,014 -0,014 -0,016 -0,016 -0,016 -0,016 -0,016 -0,016 -0,016 -0,016 -0,014 -0,012 -0,012 -0,01 -0,01 -0,008 -0,008 -0,008 -0,008 -0,01 -0,01 -0,012 -0,012 -0,014 -0,014 -0,016 -0,016 -0,016 -0,016 -0,016 -0,016 -0,016 -0,016 -0,016 -0,016 -0,016 -0,016 -0,016 -0,016 -0,018 -0,018 -0,018 -0,018 -0,02 -0,02 -0,022 -0,022 -0,024 -0,024 -0,026 -0,026 -0,028 -0,028 -0,028 -0,028 -0,028 -0,028 -0,026 -0,026 -0,026 -0,024 -0,024 -0,022 -0,02 -0,02 -0,018 -0,016 -0,016 -0,014 -0,014 -0,014 -0,014 -0,014 -0,014 -0,014 -0,014 -0,016 -0,016 -0,018 -0,018 -0,018 -0,02 -0,02 -0,02 -0,022 -0,022 -0,022 -0,022 -0,022 -0,022 -0,022 -0,022 -0,02 -0,02 -0,02 -0,02 -0,02 -0,02 -0,02 -0,02 -0,018 -0,02 -0,02 -0,02 -0,02 -0,02 -0,02 -0,02 -0,022 -0,022 -0,024 -0,024 -0,026 -0,026 -0,028 -0,028 -0,03 -0,032 -0,034 -0,034 -0,036 -0,038 -0,038 -0,038 -0,038 -0,038 -0,036 -0,034 -0,03 -0,028 -0,026 -0,024 -0,022 -0,02 -0,02 -0,018 -0,018 -0,018 -0,018 -0,018 -0,018 -0,018 -0,018 -0,018 -0,018 -0,018 -0,018 -0,018 -0,018 -0,016 -0,016 -0,016 -0,016 -0,016 -0,016 -0,014 -0,014 -0,014 -0,014 -0,014 -0,014 -0,016 -0,016 -0,016 -0,016 -0,016 -0,016 -0,016 -0,018 -0,018 -0,018 -0,018 -0,018 -0,018 -0,018 -0,018 -0,018 -0,02 -0,02 -0,022 -0,022 -0,024 -0,024 -0,024 -0,024 -0,024 -0,022 -0,022 -0,022 -0,02 -0,02 -0,02 -0,018 -0,018 -0,018 -0,016 -0,016 -0,014 -0,012 -0,01 -0,01 -0,008 -0,008 -0,008 -0,006 -0,006 -0,006 -0,004 -0,004 -0,004 -0,006 -0,006 -0,006 -0,008 -0,008 -0,01 -0,012 -0,012 -0,014 -0,016 -0,018 -0,018 -0,02 -0,02 -0,02 -0,02 -0,018 -0,018 -0,016 -0,016 -0,016 -0,014 -0,014 -0,014 -0,016 -0,016 -0,016 -0,018 -0,018 -0,02 -0,02 -0,022 -0,026 -0,028 -0,032 -0,034 -0,034 -0,034 -0,034 -0,034 -0,034 -0,032 -0,032 -0,03 -0,028 -0,026 -0,026 -0,024 -0,022 -0,022 -0,02 -0,02 -0,018 -0,016 -0,016 -0,016 -0,014 -0,014 -0,016 -0,016 -0,016 -0,018 -0,018 -0,02 -0,02 -0,022 -0,022 -0,024 -0,024 -0,026 -0,026 -0,026 -0,026 -0,024 -0,024 -0,024 -0,022 -0,022 -0,02 -0,02 -0,02 -0,02 -0,02 -0,02 -0,02 -0,02 -0,02 -0,02 -0,02 -0,02 -0,02 -0,02 -0,02 -0,02 -0,02 -0,02 -0,02 -0,022 -0,022 -0,022 -0,024 -0,024 -0,026 -0,026 -0,028 -0,028 -0,028 -0,028 -0,028 -0,028 -0,03 -0,03 -0,03 -0,032 -0,034 -0,034 -0,034 -0,036 -0,036 -0,036 -0,036 -0,036 -0,036 -0,034 -0,034 -0,034 -0,034 -0,034 -0,034 -0,034 -0,034 -0,032 -0,032 -0,032 -0,032 -0,032 -0,03 -0,03 -0,032 -0,032 -0,032 -0,032 -0,032 -0,03 -0,03 -0,03 -0,03 -0,03 -0,03 -0,03 -0,03 -0,03 -0,032 -0,032 -0,032 -0,032 -0,032 -0,032 -0,032 -0,032 -0,032 -0,03 -0,03 -0,028 -0,026 -0,024 -0,022 -0,02 -0,018 -0,016 -0,014 -0,014 -0,014 -0,014 -0,016 -0,016 -0,018 -0,018 -0,018 -0,018 -0,016 -0,014 -0,012 -0,006 0 0,006 0,014 0,022 0,032 0,044 0,056 0,068 0,08 0,094 0,106 0,12 0,132 0,146 0,158 0,17 0,182 0,194 0,204 0,214 0,224 0,232 0,24 0,246 0,25 0,252 0,252 0,252 0,25 0,248 0,242 0,236 0,23 0,22 0,208 0,196 0,182 0,168 0,152 0,136 0,118 0,1 0,082 0,066 0,048 0,032 0,016 0,002 -0,012 -0,026 -0,038 -0,05 -0,06 -0,07 -0,08 -0,088 -0,096 -0,106 -0,114 -0,122 -0,128 -0,136 -0,14 -0,146 -0,148 -0,152 -0,152 -0,154 -0,154 -0,154 -0,156 -0,156 -0,156 -0,156 -0,156 -0,158 -0,158 -0,16 -0,16 -0,16 -0,162 -0,162 -0,162 -0,164 -0,164 -0,164 -0,164 -0,162 -0,162 -0,16 -0,158 -0,158 -0,156 -0,156 -0,154 -0,154 -0,154 -0,152 -0,15 -0,148 -0,146 -0,144 -0,14 -0,136 -0,134 -0,128 -0,124 -0,12 -0,116 -0,112 -0,11 -0,106 -0,102 -0,098 -0,094 -0,09 -0,086 -0,082 -0,078 -0,074 -0,07 -0,066 -0,062 -0,058 -0,054 -0,05 -0,048 -0,046 -0,042 -0,04 -0,038 -0,036 -0,034 -0,032 -0,03 -0,028 -0,024 -0,022 -0,02 -0,018 -0,016 -0,014 -0,012 -0,012 -0,01 -0,01 -0,01 -0,01 -0,012 -0,012 -0,012 -0,014 -0,014 -0,014 -0,016 -0,016 -0,016 -0,016 -0,018 -0,018 -0,018 -0,018 -0,018 -0,016 -0,016 -0,016 -0,014 -0,014 -0,014 -0,014 -0,012 -0,012 -0,01 -0,01 -0,01 -0,008 -0,008 -0,006 -0,006 -0,004 -0,004 -0,002 -0,002 0 0 0,002 0,002 0,004 0,006 0,006 0,008 0,008 0,008 0,008 0,008 0,008 0,008 0,008 0,008 0,008 0,008 0,008 0,01 0,01 0,01 0,012 0,012 0,014 0,016 0,018 0,022 0,026 0,028 0,032 0,034 0,036 0,038 0,04 0,04 0,042 0,042 0,042 0,044 0,044 0,044 0,044 0,044 0,046 0,046 0,046 0,046 0,046 0,048 0,048 0,048 0,05 0,052 0,052 0,054 0,056 0,058 0,06 0,06 0,062 0,064 0,066 0,066 0,068 0,068 0,068 0,07 0,07 0,072 0,074 0,076 0,076 0,078 0,08 0,082 0,082 0,084 0,084 0,084 0,084 0,084 0,082 0,082 0,082 0,082 0,082 0,082 0,084 0,084 0,086 0,086 0,088 0,088 0,09 0,092 0,092 0,094 0,094 0,094 0,094 0,094 0,094 0,094 0,096 0,096 0,096 0,096 0,096 0,096 0,096 0,094 0,092 0,092 0,09 0,088 0,088 0,088 0,088 0,088 0,09 0,09 0,092 0,094 0,096 0,096 0,098 0,1 0,1 0,102 0,104 0,106 0,108 0,11 0,112 0,112 0,114 0,114 0,114 0,114 0,116 0,116 0,114 0,114 0,114 0,112 0,11 0,11 0,108 0,106 0,106 0,104 0,102 0,1 0,098 0,096 0,096 0,094 0,092 0,09 0,088 0,086 0,084 0,084 0,082 0,082 0,082 0,082 0,082 0,082 0,082 0,082 0,08 0,08 0,078 0,078 0,076 0,074 0,072 0,07 0,068 0,064 0,062 0,058 0,052 0,048 0,044 0,04 0,038 0,034 0,034 0,032 0,03 0,03 0,03 0,03 0,03 0,03 0,03 0,03 0,032 0,032 0,03 0,03 0,03 0,028 0,028 0,028 0,026 0,026 0,026 0,026 0,026 0,026 0,024 0,024 0,022 0,018 0,016 0,014 0,012 0,008 0,006 0,004 0,002 0,002 0 0 -0,002 -0,002 -0,002 -0,002 -0,004 -0,004 -0,004 -0,004 -0,004 -0,004 -0,006 -0,006 -0,006 -0,008 -0,008 -0,008 -0,008 -0,008 -0,008 -0,008 -0,008 -0,01 -0,01 -0,012 -0,014 -0,014 -0,016 -0,016 -0,016 -0,016 -0,016 -0,016 -0,014 -0,014 -0,014 -0,012 -0,012 -0,012 -0,012 -0,012 -0,014 -0,014 -0,016 -0,016 -0,016 -0,016 -0,016 -0,014 -0,012 -0,012 -0,01 -0,01 -0,008 -0,01 -0,01 -0,012 -0,012 -0,014 -0,014 -0,016 -0,016 -0,016 -0,018 -0,018 -0,018 -0,016 -0,016 -0,014 -0,014 -0,012 -0,008 -0,006 -0,004 -0,002 0 0 0 0 0 0 0 0 0 0 0 0 0 0,002 0,002 0,004 0,004 0,004 0,004 0,004 0,004 0,004 0,006 0,006 0,006 0,006 0,006 0,004 0,004 0,004 0,002 0 0 -0,004 -0,006 -0,008 -0,01 -0,012 -0,012 -0,014 -0,014 -0,014 -0,014 -0,014 -0,014 -0,014 -0,014 -0,014 -0,014 -0,012 -0,012 -0,012 -0,012 -0,012 -0,012 -0,012 -0,012 -0,01 -0,01 -0,008 -0,008 -0,008 -0,008 -0,008 -0,008 -0,008 -0,01 -0,012 -0,014 -0,016 -0,02 -0,022 -0,024 -0,026 -0,028 -0,028 -0,03 -0,03 -0,03 -0,03 -0,03 -0,03 -0,03 -0,03 -0,028 -0,026 -0,024 -0,022 -0,02 -0,018 -0,016 -0,014 -0,014 -0,012 -0,012 -0,01 -0,01 -0,008 -0,008 -0,006 -0,006 -0,006 -0,006 -0,006 -0,006 -0,008 -0,008 -0,008 -0,008 -0,008 -0,008 -0,008 -0,008 -0,008 -0,008 -0,008 -0,01 -0,01 -0,01 -0,012 -0,012 -0,014 -0,014 -0,016 -0,016 -0,018 -0,018 -0,018 -0,02 -0,02 -0,02 -0,022 -0,022 -0,022 -0,024 -0,024 -0,024 -0,026 -0,026 -0,026 -0,028 -0,028 -0,028 -0,028 -0,028 -0,028 -0,028 -0,026 -0,026 -0,026 -0,024 -0,022 -0,022 -0,02 -0,018 -0,016 -0,014 -0,014 -0,012 -0,012 -0,012 -0,012 -0,012 -0,014 -0,014 -0,016 -0,018 -0,02 -0,022 -0,024 -0,026 -0,03 -0,032 -0,034 -0,036 -0,038 -0,04 -0,042 -0,042 -0,044 -0,044 -0,044 -0,046 -0,046 -0,044 -0,044 -0,042 -0,04 -0,038 -0,034 -0,032 -0,028 -0,024 -0,022 -0,018 -0,016 -0,014 -0,012 -0,012 -0,012 -0,012 -0,012 -0,012 -0,012 -0,01 -0,01 -0,01 -0,01 -0,012 -0,012 -0,014 -0,014 -0,016 -0,016 -0,018 -0,018 -0,02 -0,02 -0,02 -0,022 -0,02 -0,02 -0,02 -0,02 -0,02 -0,02 -0,02 -0,02 -0,02 -0,02 -0,02 -0,022 -0,022 -0,022 -0,024 -0,024 -0,026 -0,026 -0,028 -0,028 -0,03 -0,03 -0,028 -0,028 -0,028 -0,028 -0,028 -0,026 -0,026 -0,024 -0,024 -0,024 -0,022 -0,022 -0,02 -0,018 -0,018 -0,016 -0,014 -0,012 -0,01 -0,008 -0,004 -0,004 -0,002 -0,002 -0,002 -0,004 -0,004 -0,006 -0,008 -0,01 -0,012 -0,012 -0,016 -0,018 -0,02 -0,022 -0,026 -0,028 -0,03 -0,032 -0,032 -0,032 -0,032 -0,03 -0,03 -0,028 -0,026 -0,024 -0,022 -0,02 -0,018 -0,016 -0,016 -0,014 -0,014 -0,012 -0,012 -0,01 -0,01 -0,008 -0,008 -0,008 -0,01 -0,01 -0,01 -0,01 -0,012 -0,012 -0,014 -0,014 -0,016 -0,016 -0,018 -0,02 -0,02 -0,022 -0,024 -0,026 -0,026 -0,026 -0,026 -0,026 -0,026 -0,026 -0,026 -0,026 -0,028 -0,028 -0,028 -0,028 -0,026 -0,026 -0,026 -0,026 -0,026 -0,026 -0,026 -0,026 -0,026 -0,026 -0,026 -0,026 -0,026 -0,026 -0,026 -0,026 -0,028 -0,028 -0,03 -0,03 -0,032 -0,032 -0,032 -0,032 -0,032 -0,032 -0,032 -0,032 -0,032 -0,032 -0,032 -0,032 -0,032 -0,032 -0,032 -0,032 -0,032 -0,03 -0,03 -0,03 -0,03 -0,032 -0,032 -0,034 -0,034 -0,034 -0,034 -0,032 -0,032 -0,03 -0,028 -0,028 -0,026 -0,026 -0,026 -0,026 -0,026 -0,026 -0,024 -0,024 -0,024 -0,022 -0,022 -0,022 -0,022 -0,02 -0,02 -0,02 -0,02 -0,02 -0,02 -0,02 -0,02 -0,02 -0,02 -0,022 -0,022 -0,024 -0,026 -0,028 -0,03 -0,032 -0,034 -0,034 -0,036 -0,036 -0,036 -0,034 -0,034 -0,034 -0,032 -0,032 -0,032 -0,03 -0,03 -0,03 -0,032 -0,032 -0,032 -0,032 -0,032 -0,032 -0,032 -0,032 -0,03 -0,03 -0,03 -0,028 -0,028 -0,028 -0,028 -0,028 -0,03 -0,03 -0,032 -0,034 -0,036 -0,038 -0,038 -0,04 -0,04 -0,04 -0,04 -0,04 -0,04 -0,038 -0,038 -0,038 -0,038 -0,036 -0,036 -0,036 -0,036 -0,036 -0,034 -0,032 -0,03 -0,026 -0,022 -0,018 -0,012 -0,008 -0,002 0,004 0,01 0,018 0,026 0,034 0,044 0,056 0,068 0,08 0,094 0,106 0,12 0,132 0,144 0,156 0,168 0,18 0,192 0,204 0,214 0,222 0,23 0,238 0,242 0,246 0,248 0,248 0,246 0,244 0,24 0,234 0,228 0,22 0,212 0,2 0,19 0,176 0,162 0,148 0,132 0,114 0,098 0,08 0,062 0,044 0,026 0,01 -0,004 -0,02 -0,034 -0,048 -0,06 -0,072 -0,082 -0,092 -0,1 -0,108 -0,116 -0,122 -0,126 -0,132 -0,136 -0,14 -0,144 -0,148 -0,152 -0,154 -0,156 -0,158 -0,16 -0,162 -0,162 -0,162 -0,162 -0,16 -0,16 -0,158 -0,158 -0,156 -0,156 -0,154 -0,154 -0,152 -0,152 -0,15 -0,15 -0,148 -0,148 -0,146 -0,146 -0,144 -0,144 -0,142 -0,14 -0,14 -0,138 -0,136 -0,136 -0,134 -0,132 -0,13 -0,128 -0,126 -0,124 -0,122 -0,118 -0,114 -0,112 -0,108 -0,104 -0,1 -0,096 -0,092 -0,088 -0,084 -0,08 -0,076 -0,072 -0,068 -0,066 -0,062 -0,06 -0,056 -0,054 -0,05 -0,048 -0,046 -0,046 -0,044 -0,044 -0,044 -0,042 -0,042 -0,042 -0,04 -0,038 -0,036 -0,036 -0,034 -0,032 -0,032 -0,03 -0,028 -0,026 -0,026 -0,024 -0,02 -0,018 -0,016 -0,012 -0,01 -0,008 -0,004 -0,002 0 0 0,002 0,004 0,004 0,006 0,006 0,006 0,006 0,008 0,008 0,008 0,008 0,008 0,008 0,008 0,008 0,008 0,008 0,008 0,008 0,008 0,008 0,01 0,01 0,012 0,012 0,012 0,014 0,014 0,016 0,016 0,016 0,018 0,018 0,018 0,018 0,018 0,02 0,02 0,02 0,022 0,022 0,024 0,024 0,024 0,024 0,024 0,024 0,022 0,022 0,022 0,02 0,02 0,022 0,022 0,022 0,022 0,024 0,024 0,024 0,026 0,026 0,026 0,028 0,028 0,03 0,032 0,032 0,034 0,036 0,036 0,038 0,04 0,04 0,042 0,044 0,044 0,046 0,048 0,05 0,052 0,052 0,054 0,056 0,058 0,058 0,06 0,062 0,064 0,066 0,068 0,07 0,072 0,074 0,074 0,076 0,078 0,08 0,082 0,084 0,086 0,088 0,092 0,094 0,096 0,098 0,098 0,1 0,102 0,102 0,104 0,104 0,106 0,106 0,106 0,106 0,106 0,106 0,108 0,108 0,108 0,108 0,108 0,108 0,108 0,108 0,108 0,108 0,108 0,108 0,108 0,106 0,106 0,104 0,104 0,102 0,1 0,1 0,1 0,1 0,1 0,1 0,102 0,104 0,104 0,106 0,106 0,108 0,108 0,108 0,108 0,108 0,108 0,108 0,106 0,106 0,104 0,104 0,104 0,104 0,104 0,102 0,102 0,102 0,102 0,104 0,104 0,104 0,104 0,106 0,106 0,106 0,106 0,106 0,106 0,106 0,106 0,106 0,104 0,104 0,102 0,102 0,1 0,1 0,098 0,098 0,098 0,096 0,096 0,096 0,096 0,094 0,092 0,09 0,09 0,088 0,086 0,084 0,084 0,082 0,08 0,078 0,076 0,074 0,072 0,07 0,068 0,066 0,064 0,062 0,06 0,058 0,058 0,056 0,056 0,056 0,056 0,056 0,056 0,058 0,058 0,058 0,058 0,058 0,056 0,054 0,052 0,05 0,048 0,044 0,04 0,036 0,032 0,03 0,026 0,022 0,02 0,016 0,014 0,012 0,008 0,006 0,004 0,002 0 0 -0,002 -0,002 -0,004 -0,004 -0,002 -0,002 0 0 0,002 0,004 0,004 0,004 0,006 0,006 0,006 0,006 0,006 0,006 0,006 0,004 0,004 0,002 0 0 -0,002 -0,002 -0,004 -0,004 -0,004 -0,006 -0,006 -0,008 -0,008 -0,008 -0,008 -0,008 -0,008 -0,008 -0,008 -0,008 -0,008 -0,008 -0,008 -0,008 -0,008 -0,008 -0,008 -0,008 -0,008 -0,01 -0,01 -0,012 -0,012 -0,012 -0,014 -0,014 -0,014 -0,014 -0,012 -0,012 -0,012 -0,01 -0,008 -0,006 -0,006 -0,004 -0,002 0 0 0 0,002 0,002 0,002 0 0 -0,002 -0,002 -0,002 -0,004 -0,004 -0,002 -0,002 -0,002 -0,002 -0,002 -0,002 -0,002 -0,002 -0,002 -0,002 0 -0,002 -0,002 -0,004 -0,006 -0,008 -0,01 -0,012 -0,014 -0,016 -0,018 -0,02 -0,022 -0,022 -0,024 -0,024 -0,024 -0,024 -0,024 -0,024 -0,024 -0,022 -0,022 -0,02 -0,018 -0,016 -0,016 -0,014 -0,014 -0,012 -0,012 -0,012 -0,012 -0,01 -0,01 -0,01 -0,01 -0,01 -0,01 -0,012 -0,012 -0,012 -0,012 -0,012 -0,01 -0,01 -0,01 -0,008 -0,008 -0,008 -0,008 -0,006 -0,006 -0,004 -0,004 -0,004 -0,004 -0,004 -0,004 -0,004 -0,006 -0,008 -0,008 -0,01 -0,012 -0,012 -0,014 -0,014 -0,016 -0,016 -0,016 -0,018 -0,018 -0,018 -0,018 -0,018 -0,02 -0,02 -0,02 -0,022 -0,022 -0,024 -0,022 -0,022 -0,022 -0,02 -0,02 -0,018 -0,018 -0,018 -0,018 -0,016 -0,018 -0,016 -0,016 -0,016 -0,016 -0,016 -0,016 -0,016 -0,016 -0,018 -0,018 -0,018 -0,018 -0,018 -0,02 -0,02 -0,02 -0,02 -0,022 -0,024 -0,024 -0,026 -0,028 -0,03 -0,032 -0,032 -0,032 -0,032 -0,03 -0,03 -0,028 -0,026 -0,026 -0,024 -0,024 -0,022 -0,022 -0,022 -0,022 -0,02 -0,02 -0,02 -0,02 -0,018 -0,018 -0,016 -0,016 -0,014 -0,012 -0,012 -0,012 -0,012 -0,012 -0,012 -0,012 -0,012 -0,014 -0,014 -0,014 -0,014 -0,014 -0,014 -0,016 -0,016 -0,018 -0,02 -0,022 -0,022 -0,024 -0,026 -0,028 -0,03 -0,03 -0,03 -0,032 -0,032 -0,032 -0,032 -0,032 -0,032 -0,032 -0,03 -0,03 -0,03 -0,03 -0,03 -0,03 -0,028 -0,028 -0,028 -0,028 -0,028 -0,03 -0,03 -0,03 -0,032 -0,032 -0,034 -0,034 -0,036 -0,036 -0,036 -0,036 -0,036 -0,036 -0,034 -0,034 -0,032 -0,03 -0,028 -0,026 -0,024 -0,022 -0,018 -0,016 -0,014 -0,012 -0,01 -0,008 -0,006 -0,004 -0,004 -0,002 -0,002 -0,004 -0,004 -0,006 -0,008 -0,01 -0,012 -0,014 -0,016 -0,018 -0,018 -0,02 -0,02 -0,022 -0,022 -0,022 -0,022 -0,022 -0,022 -0,022 -0,022 -0,022 -0,02 -0,02 -0,02 -0,02 -0,018 -0,018 -0,018 -0,018 -0,016 -0,016 -0,016 -0,014 -0,014 -0,012 -0,012 -0,012 -0,012 -0,012 -0,012 -0,012 -0,012 -0,01 -0,01 -0,01 -0,01 -0,01 -0,01 -0,01 -0,01 -0,01 -0,01 -0,01 -0,01 -0,01 -0,01 -0,01 -0,01 -0,01 -0,012 -0,012 -0,014 -0,014 -0,016 -0,016 -0,016 -0,018 -0,018 -0,018 -0,02 -0,02 -0,02 -0,022 -0,022 -0,022 -0,024 -0,024 -0,026 -0,026 -0,026 -0,028 -0,03 -0,03 -0,032 -0,034 -0,034 -0,034 -0,034 -0,034 -0,034 -0,034 -0,032 -0,032 -0,032 -0,03 -0,03 -0,03 -0,028 -0,028 -0,028 -0,028 -0,026 -0,026 -0,026 -0,026 -0,024 -0,024 -0,022 -0,022 -0,02 -0,02 -0,02 -0,02 -0,02 -0,02 -0,02 -0,022 -0,022 -0,024 -0,024 -0,024 -0,024 -0,024 -0,024 -0,024 -0,022 -0,022 -0,022 -0,022 -0,02 -0,02 -0,02 -0,02 -0,018 -0,018 -0,016 -0,016 -0,014 -0,014 -0,012 -0,012 -0,012 -0,012 -0,012 -0,012 -0,014 -0,014 -0,016 -0,018 -0,02 -0,022 -0,024 -0,026 -0,026 -0,026 -0,028 -0,028 -0,028 -0,03 -0,03 -0,032 -0,032 -0,032 -0,034 -0,034 -0,034 -0,034 -0,034 -0,034 -0,034 -0,032 -0,032 -0,032 -0,03 -0,03 -0,03 -0,028 -0,028 -0,028 -0,028 -0,028 -0,026 -0,026 -0,026 -0,026 -0,028 -0,028 -0,03 -0,032 -0,034 -0,034 -0,036 -0,036 -0,038 -0,038 -0,038 -0,038 -0,038 -0,038 -0,038 -0,04 -0,04 -0,042 -0,042 -0,042 -0,044 -0,044 -0,044 -0,046 -0,046 -0,048 -0,05 -0,052 -0,052 -0,052 -0,054 -0,052 -0,052 -0,05 -0,05 -0,048 -0,046 -0,044 -0,04 -0,038 -0,034 -0,032 -0,03 -0,028 -0,026 -0,024 -0,022 -0,022 -0,022 -0,022 -0,02 -0,02 -0,02 -0,018 -0,018 -0,018 -0,016 -0,016 -0,014 -0,012 -0,01 -0,006 -0,002 0,002 0,008 0,016 0,026 0,036 0,046 0,058 0,072 0,084 0,098 0,112 0,124 0,138 0,152 0,166 0,178 0,192 0,206 0,218 0,23 0,24 0,25 0,258 0,264 0,27 0,274 0,274 0,274 0,274 0,27 0,266 0,26 0,252 0,244 0,234 0,222 0,208 0,194 0,178 0,16 0,144 0,124 0,106 0,086 0,068 0,048 0,03 0,012 -0,006 -0,022 -0,036 -0,05 -0,064 -0,076 -0,086 -0,096 -0,104 -0,112 -0,118 -0,124 -0,128 -0,134 -0,138 -0,142 -0,146 -0,148 -0,15 -0,152 -0,154 -0,156 -0,156 -0,158 -0,16 -0,16 -0,162 -0,162 -0,164 -0,166 -0,166 -0,168 -0,168 -0,168 -0,168 -0,168 -0,168 -0,166 -0,166 -0,166 -0,166 -0,166 -0,164 -0,164 -0,164 -0,162 -0,162 -0,16 -0,158 -0,156 -0,154 -0,152 -0,15 -0,148 -0,146 -0,142 -0,14 -0,136 -0,13 -0,126 -0,12 -0,114 -0,11 -0,104 -0,096 -0,09 -0,086 -0,08 -0,074 -0,07 -0,066 -0,064 -0,06 -0,056 -0,054 -0,05 -0,048 -0,046 -0,042 -0,04 -0,038 -0,034 -0,032 -0,03 -0,028 -0,026 -0,024 -0,022 -0,02 -0,018 -0,016 -0,014 -0,012 -0,01 -0,01 -0,008 -0,008 -0,008 -0,008 -0,008 -0,01 -0,012 -0,012 -0,014 -0,014 -0,014 -0,014 -0,014 -0,014 -0,014 -0,014 -0,014 -0,014 -0,012 -0,01 -0,008 -0,008 -0,006 -0,004 -0,002 -0,002 0 0 0 0 0 0 0 0 0 0 0 0 0 0 0 0 0 0,002 0,002 0,002 0,004 0,004 0,006 0,006 0,008 0,01 0,012 0,012 0,014 0,016 0,016 0,018 0,018 0,018 0,02 0,02 0,022 0,022 0,024 0,026 0,026 0,028 0,028 0,03 0,03 0,028 0,028 0,028 0,026 0,026 0,026 0,026 0,028 0,028 0,028 0,028 0,03 0,032 0,034 0,038 0,04 0,042 0,044 0,046 0,046 0,046 0,048 0,046 0,046 0,046 0,046 0,046 0,046 0,046 0,048 0,048 0,048 0,05 0,05 0,052 0,052 0,054 0,056 0,06 0,062 0,064 0,068 0,07 0,072 0,074 0,076 0,078 0,08 0,082 0,084 0,084 0,084 0,086 0,086 0,084 0,084 0,084 0,084 0,084 0,084 0,084 0,084 0,084 0,086 0,086 0,086 0,086 0,088 0,088 0,088 0,09 0,09 0,09 0,09 0,092 0,092 0,092 0,092 0,092 0,092 0,092 0,092 0,092 0,094 0,094 0,094 0,094 0,096 0,096 0,096 0,098 0,098 0,098 0,096 0,096 0,096 0,096 0,096 0,094 0,094 0,094 0,092 0,092 0,092 0,09 0,09 0,088 0,088 0,088 0,086 0,086 0,086 0,086 0,088 0,088 0,088 0,088 0,088 0,088 0,088 0,088 0,086 0,084 0,084 0,082 0,082 0,08 0,08 0,08 0,078 0,078 0,078 0,078 0,076 0,076 0,076 0,076 0,078 0,078 0,076 0,076 0,074 0,072 0,07 0,068 0,066 0,064 0,062 0,062 0,06 0,058 0,058 0,056 0,054 0,054 0,052 0,052 0,05 0,05 0,048 0,048 0,046 0,046 0,046 0,044 0,042 0,04 0,038 0,036 0,032 0,03 0,028 0,026 0,026 0,024 0,022 0,02 0,018 0,018 0,016 0,014 0,014 0,012 0,012 0,012 0,012 0,01 0,01 0,008 0,008 0,008 0,006 0,006 0,004 0,004 0,002 0 0 -0,002 -0,004 -0,004 -0,006 -0,008 -0,008 -0,01 -0,01 -0,012 -0,012 -0,012 -0,012 -0,012 -0,012 -0,012 -0,01 -0,01 -0,01 -0,008 -0,008 -0,008 -0,008 -0,008 -0,008 -0,008 -0,008 -0,008 -0,008 -0,01 -0,012 -0,012 -0,014 -0,016 -0,016 -0,018 -0,02 -0,02 -0,02 -0,02 -0,018 -0,016 -0,016 -0,014 -0,012 -0,012 -0,01 -0,01 -0,01 -0,01 -0,01 -0,01 -0,01 -0,01 -0,01 -0,01 -0,01 -0,008 -0,008 -0,008 -0,008 -0,008 -0,008 -0,008 -0,008 -0,008 -0,01 -0,01 -0,01 -0,01 -0,012 -0,012 -0,012 -0,012 -0,01 -0,01 -0,01 -0,01 -0,01 -0,012 -0,012 -0,012 -0,01 -0,01 -0,01 -0,008 -0,006 -0,006 -0,004 -0,004 -0,002 -0,002 -0,004 -0,004 -0,006 -0,006 -0,008 -0,01 -0,01 -0,012 -0,012 -0,012 -0,012 -0,014 -0,014 -0,014 -0,014 -0,016 -0,016 -0,016 -0,018 -0,018 -0,02 -0,02 -0,022 -0,022 -0,022 -0,022 -0,022 -0,022 -0,022 -0,022 -0,02 -0,02 -0,018 -0,018 -0,016 -0,016 -0,014 -0,014 -0,012 -0,012 -0,014 -0,014 -0,014 -0,016 -0,016 -0,018 -0,018 -0,02 -0,02 -0,022 -0,022 -0,022 -0,024 -0,024 -0,024 -0,024 -0,024 -0,024 -0,022 -0,022 -0,02 -0,02 -0,02 -0,02 -0,02 -0,018 -0,018 -0,016 -0,014 -0,012 -0,01 -0,008 -0,008 -0,006 -0,006 -0,006 -0,006 -0,008 -0,008 -0,008 -0,008 -0,01 -0,01 -0,01 -0,01 -0,01 -0,01 -0,01 -0,01 -0,012 -0,012 -0,012 -0,014 -0,014 -0,016 -0,016 -0,016 -0,016 -0,016 -0,018 -0,018 -0,018 -0,018 -0,018 -0,018 -0,018 -0,018 -0,018 -0,018 -0,018 -0,018 -0,016 -0,016 -0,016 -0,016 -0,014 -0,014 -0,014 -0,014 -0,014 -0,014 -0,016 -0,016 -0,018 -0,018 -0,02 -0,02 -0,022 -0,022 -0,022 -0,024 -0,024 -0,026 -0,026 -0,026 -0,024 -0,024 -0,022 -0,022 -0,02 -0,018 -0,016 -0,016 -0,014 -0,014 -0,014 -0,014 -0,014 -0,014 -0,014 -0,014 -0,014 -0,014 -0,014 -0,014 -0,014 -0,012 -0,012 -0,012 -0,012 -0,012 -0,014 -0,014 -0,014 -0,014 -0,014 -0,014 -0,014 -0,016 -0,016 -0,016 -0,016 -0,018 -0,018 -0,02 -0,022 -0,024 -0,026 -0,028 -0,03 -0,03 -0,032 -0,03 -0,03 -0,028 -0,026 -0,026 -0,024 -0,022 -0,02 -0,018 -0,016 -0,014 -0,012 -0,01 -0,01 -0,008 -0,008 -0,006 -0,006 -0,006 -0,006 -0,008 -0,008 -0,01 -0,01 -0,012 -0,012 -0,012 -0,012 -0,014 -0,014 -0,016 -0,016 -0,016 -0,018 -0,018 -0,018 -0,018 -0,018 -0,018 -0,016 -0,016 -0,016 -0,016 -0,016 -0,014 -0,014 -0,014 -0,014 -0,012 -0,012 -0,012 -0,012 -0,014 -0,014 -0,014 -0,014 -0,014 -0,014 -0,012 -0,01 -0,01 -0,008 -0,006 -0,006 -0,004 -0,004 -0,004 -0,004 -0,004 -0,004 -0,006 -0,006 -0,008 -0,008 -0,008 -0,01 -0,01 -0,01 -0,01 -0,01 -0,01 -0,01 -0,01 -0,01 -0,012 -0,012 -0,012 -0,012 -0,012 -0,012 -0,01 -0,01 -0,008 -0,008 -0,008 -0,008 -0,008 -0,008 -0,008 -0,01 -0,01 -0,012 -0,012 -0,014 -0,014 -0,016 -0,018 -0,018 -0,02 -0,022 -0,024 -0,024 -0,026 -0,026 -0,028 -0,028 -0,028 -0,028 -0,028 -0,026 -0,026 -0,026 -0,026 -0,026 -0,026 -0,026 -0,024 -0,024 -0,022 -0,022 -0,022 -0,02 -0,02 -0,02 -0,022 -0,022 -0,024 -0,026 -0,028 -0,03 -0,03 -0,03 -0,028 -0,028 -0,026 -0,024 -0,022 -0,018 -0,016 -0,014 -0,012 -0,01 -0,008 -0,006 -0,004 -0,002 -0,002 0 0 0 0 0 0 0 0 -0,002 -0,002 -0,004 -0,006 -0,008 -0,01 -0,012 -0,012 -0,014 -0,014 -0,014 -0,016 -0,016 -0,016 -0,016 -0,016 -0,018 -0,018 -0,02 -0,022 -0,022 -0,022 -0,024 -0,024 -0,024 -0,024 -0,026 -0,026 -0,026 -0,026 -0,026 -0,024 -0,022 -0,02 -0,018 -0,016 -0,016 -0,014 -0,012 -0,012 -0,012 -0,01 -0,01 -0,01 -0,01 -0,012 -0,012 -0,01 -0,01 -0,012 -0,012 -0,012 -0,012 -0,014 -0,014 -0,014 -0,014 -0,014 -0,014 -0,014 -0,014 -0,014 -0,014 -0,016 -0,016 -0,018 -0,018 -0,02 -0,022 -0,024 -0,026 -0,028 -0,03 -0,032 -0,034 -0,036 -0,038 -0,038 -0,038 -0,038 -0,038 -0,038 -0,038 -0,036 -0,036 -0,034 -0,032 -0,03 -0,028 -0,026 -0,024 -0,022 -0,02 -0,016 -0,014 -0,01 -0,006 -0,002 0,002 0,006 0,01 0,016 0,024 0,032 0,04 0,05 0,06 0,07 0,082 0,094 0,106 0,116 0,128 0,14 0,15 0,162 0,174 0,184 0,196 0,208 0,218 0,228 0,236 0,244 0,25 0,252 0,254 0,256 0,254 0,252 0,248 0,244 0,236 0,228 0,218 0,206 0,194 0,18 0,166 0,15 0,132 0,114 0,096 0,078 0,058 0,04 0,022 0,006 -0,008 -0,024 -0,036 -0,05 -0,062 -0,072 -0,082 -0,092 -0,1 -0,108 -0,112 -0,118 -0,122 -0,126 -0,128 -0,13 -0,132 -0,132 -0,134 -0,136 -0,136 -0,138 -0,142 -0,144 -0,148 -0,152 -0,154 -0,158 -0,162 -0,164 -0,168 -0,17 -0,17 -0,17 -0,17 -0,168 -0,166 -0,166 -0,164 -0,162 -0,16 -0,158 -0,156 -0,154 -0,152 -0,148 -0,146 -0,144 -0,142 -0,14 -0,136 -0,134 -0,132 -0,13 -0,128 -0,124 -0,122 -0,12 -0,118 -0,114 -0,112 -0,11 -0,106 -0,104 -0,1 -0,098 -0,094 -0,09 -0,086 -0,082 -0,078 -0,074 -0,07 -0,066 -0,062 -0,06 -0,056 -0,054 -0,052 -0,05 -0,048 -0,046 -0,044 -0,04 -0,038 -0,036 -0,032 -0,03 -0,028 -0,026 -0,024 -0,022 -0,022 -0,02 -0,02 -0,02 -0,02 -0,02 -0,02 -0,02 -0,018 -0,018 -0,018 -0,018 -0,016 -0,016 -0,016 -0,014 -0,014 -0,014 -0,014 -0,014 -0,014 -0,012 -0,012 -0,012 -0,01 -0,01 -0,01 -0,008 -0,008 -0,008 -0,008 -0,008 -0,01 -0,01 -0,012 -0,012 -0,01 -0,01 -0,01 -0,008 -0,006 -0,004 -0,002 0 0 0 0,002 0,002 0,004 0,004 0,006 0,008 0,008 0,01 0,012 0,012 0,012 0,012 0,012 0,01 0,01 0,008 0,008 0,008 0,008 0,008 0,008 0,01 0,01 0,012 0,014 0,016 0,018 0,02 0,02 0,022 0,026 0,028 0,03 0,032 0,034 0,036 0,038 0,038 0,04 0,042 0,042 0,044 0,044 0,046 0,046 0,048 0,048 0,048 0,05 0,05 0,052 0,054 0,054 0,056 0,056 0,056 0,056 0,056 0,058 0,058 0,058 0,06 0,06 0,06 0,062 0,062 0,064 0,064 0,066 0,066 0,068 0,07 0,07 0,072 0,074 0,076 0,078 0,08 0,082 0,084 0,086 0,086 0,088 0,088 0,09 0,09 0,09 0,09 0,09 0,088 0,088 0,086 0,086 0,086 0,086 0,088 0,088 0,09 0,092 0,094 0,094 0,094 0,094 0,094 0,092 0,092 0,092 0,092 0,092 0,09 0,09 0,09 0,09 0,088 0,088 0,088 0,088 0,088 0,088 0,088 0,09 0,09 0,092 0,092 0,092 0,092 0,09 0,09 0,09 0,088 0,088 0,086 0,086 0,084 0,084 0,084 0,084 0,084 0,084 0,086 0,086 0,086 0,086 0,084 0,082 0,082 0,08 0,078 0,078 0,076 0,076 0,076 0,076 0,076 0,076 0,076 0,076 0,076 0,076 0,076 0,076 0,076 0,078 0,078 0,078 0,078 0,078 0,078 0,076 0,076 0,074 0,074 0,072 0,07 0,07 0,066 0,064 0,062 0,058 0,056 0,054 0,052 0,05 0,048 0,046 0,046 0,044 0,044 0,042 0,042 0,04 0,038 0,038 0,036 0,036 0,034 0,03 0,028 0,026 0,024 0,022 0,02 0,02 0,02 0,018 0,018 0,018 0,018 0,018 0,018 0,016 0,016 0,014 0,012 0,01 0,008 0,006 0,004 0,002 0 0 -0,002 -0,004 -0,004 -0,006 -0,006 -0,008 -0,008 -0,01 -0,012 -0,012 -0,014 -0,014 -0,014 -0,016 -0,016 -0,016 -0,018 -0,018 -0,018 -0,016 -0,016 -0,016 -0,016 -0,016 -0,014 -0,014 -0,012 -0,012 -0,012 -0,01 -0,01 -0,008 -0,008 -0,008 -0,008 -0,006 -0,006 -0,006 -0,006 -0,006 -0,006 -0,006 -0,008 -0,008 -0,008 -0,008 -0,01 -0,01 -0,01 -0,012 -0,012 -0,012 -0,012 -0,014 -0,014 -0,014 -0,014 -0,014 -0,014 -0,012 -0,012 -0,012 -0,01 -0,01 -0,01 -0,01 -0,01 -0,012 -0,012 -0,012 -0,012 -0,014 -0,014 -0,016 -0,016 -0,018 -0,018 -0,02 -0,02 -0,022 -0,022 -0,02 -0,02 -0,02 -0,018 -0,018 -0,018 -0,016 -0,016 -0,018 -0,018 -0,018 -0,02 -0,02 -0,022 -0,022 -0,024 -0,026 -0,026 -0,026 -0,026 -0,024 -0,024 -0,022 -0,02 -0,018 -0,016 -0,014 -0,014 -0,012 -0,012 -0,01 -0,01 -0,008 -0,008 -0,008 -0,008 -0,006 -0,006 -0,006 -0,006 -0,006 -0,006 -0,006 -0,006 -0,008 -0,008 -0,008 -0,01 -0,01 -0,01 -0,012 -0,012 -0,012 -0,014 -0,014 -0,014 -0,014 -0,016 -0,016 -0,016 -0,016 -0,016 -0,018 -0,018 -0,018 -0,02 -0,02 -0,022 -0,022 -0,022 -0,022 -0,022 -0,022 -0,022 -0,022 -0,02 -0,02 -0,02 -0,02 -0,02 -0,02 -0,018 -0,018 -0,018 -0,016 -0,016 -0,016 -0,016 -0,016 -0,016 -0,016 -0,016 -0,016 -0,016 -0,016 -0,016 -0,018 -0,018 -0,018 -0,02 -0,022 -0,022 -0,022 -0,022 -0,022 -0,022 -0,022 -0,02 -0,02 -0,018 -0,018 -0,018 -0,016 -0,016 -0,016 -0,014 -0,012 -0,012 -0,01 -0,008 -0,006 -0,006 -0,006 -0,006 -0,006 -0,006 -0,008 -0,008 -0,008 -0,01 -0,01 -0,012 -0,012 -0,014 -0,014 -0,016 -0,018 -0,018 -0,02 -0,022 -0,022 -0,024 -0,026 -0,026 -0,026 -0,028 -0,028 -0,028 -0,028 -0,028 -0,028 -0,028 -0,028 -0,028 -0,026 -0,026 -0,026 -0,026 -0,024 -0,024 -0,022 -0,022 -0,02 -0,02 -0,018 -0,016 -0,016 -0,014 -0,014 -0,014 -0,014 -0,014 -0,014 -0,016 -0,016 -0,018 -0,02 -0,024 -0,026 -0,028 -0,032 -0,034 -0,036 -0,038 -0,038 -0,038 -0,04 -0,04 -0,04 -0,038 -0,038 -0,036 -0,036 -0,034 -0,032 -0,028 -0,026 -0,022 -0,02 -0,018 -0,014 -0,012 -0,01 -0,008 -0,006 -0,006 -0,004 -0,004 -0,002 -0,002 -0,002 -0,002 -0,002 -0,002 -0,002 -0,002 -0,002 -0,002 -0,004 -0,004 -0,004 -0,006 -0,006 -0,008 -0,008 -0,01 -0,01 -0,01 -0,012 -0,012 -0,014 -0,016 -0,016 -0,016 -0,018 -0,018 -0,018 -0,02 -0,02 -0,022 -0,022 -0,022 -0,022 -0,022 -0,02 -0,02 -0,02 -0,02 -0,018 -0,018 -0,016 -0,016 -0,014 -0,014 -0,012 -0,012 -0,012 -0,012 -0,012 -0,012 -0,012 -0,01 -0,01 -0,008 -0,008 -0,008 -0,008 -0,008 -0,008 -0,008 -0,008 -0,008 -0,008 -0,008 -0,008 -0,008 -0,008 -0,008 -0,008 -0,008 -0,008 -0,01 -0,01 -0,01 -0,01 -0,01 -0,01 -0,01 -0,008 -0,008 -0,008 -0,008 -0,008 -0,008 -0,01 -0,012 -0,014 -0,016 -0,018 -0,022 -0,024 -0,026 -0,028 -0,03 -0,032 -0,034 -0,036 -0,036 -0,036 -0,034 -0,032 -0,03 -0,03 -0,028 -0,026 -0,024 -0,022 -0,02 -0,018 -0,018 -0,016 -0,014 -0,014 -0,014 -0,012 -0,014 -0,014 -0,014 -0,014 -0,016 -0,016 -0,016 -0,016 -0,016 -0,016 -0,016 -0,016 -0,018 -0,018 -0,018 -0,02 -0,02 -0,022 -0,022 -0,024 -0,024 -0,022 -0,022 -0,02 -0,018 -0,018 -0,016 -0,014 -0,012 -0,012 -0,012 -0,01 -0,01 -0,01 -0,01 -0,012 -0,012 -0,012 -0,014 -0,014 -0,016 -0,016 -0,018 -0,02 -0,022 -0,022 -0,024 -0,026 -0,026 -0,026 -0,028 -0,028 -0,028 -0,028 -0,028 -0,028 -0,028 -0,028 -0,028 -0,028 -0,028 -0,026 -0,026 -0,026 -0,026 -0,026 -0,026 -0,026 -0,026 -0,026 -0,026 -0,026 -0,028 -0,028 -0,028 -0,03 -0,03 -0,032 -0,032 -0,034 -0,034 -0,034 -0,036 -0,036 -0,036 -0,036 -0,036 -0,034 -0,034 -0,034 -0,032 -0,03 -0,028 -0,026 -0,026 -0,024 -0,024 -0,022 -0,022 -0,02 -0,02 -0,02 -0,018 -0,018 -0,018 -0,018 -0,018 -0,02 -0,022 -0,022 -0,024 -0,024 -0,026 -0,026 -0,028 -0,028 -0,03 -0,03 -0,032 -0,032 -0,034 -0,034 -0,036 -0,036 -0,036 -0,034 -0,034 -0,032 -0,03 -0,028 -0,024 -0,02 -0,016 -0,012 -0,006 0 0,01 0,02 0,032 0,044 0,058 0,07 0,084 0,096 0,108 0,12 0,132 0,144 0,154 0,166 0,176 0,186 0,194 0,202 0,21 0,216 0,222 0,226 0,23 0,234 0,236 0,236 0,236 0,232 0,23 0,224 0,216 0,208 0,198 0,186 0,174 0,16 0,146 0,13 0,114 0,096 0,078 0,058 0,04 0,022 0,004 -0,012 -0,026 -0,042 -0,054 -0,066 -0,078 -0,09 -0,1 -0,108 -0,116 -0,122 -0,128 -0,132 -0,136 -0,14 -0,142 -0,144 -0,146 -0,148 -0,152 -0,154 -0,156 -0,158 -0,16 -0,162 -0,164 -0,166 -0,166 -0,168 -0,168 -0,168 -0,168 -0,168 -0,168 -0,168 -0,168 -0,168 -0,168 -0,17 -0,17 -0,17 -0,17 -0,168 -0,166 -0,164 -0,16 -0,158 -0,154 -0,152 -0,148 -0,144 -0,14 -0,138 -0,134 -0,13 -0,124 -0,12 -0,116 -0,11 -0,106 -0,102 -0,098 -0,092 -0,088 -0,084 -0,08 -0,076 -0,072 -0,07 -0,066 -0,064 -0,062 -0,058 -0,056 -0,054 -0,05 -0,048 -0,046 -0,044 -0,042 -0,038 -0,036 -0,034 -0,032 -0,032 -0,03 -0,028 -0,026 -0,026 -0,024 -0,024 -0,022 -0,022 -0,02 -0,018 -0,018 -0,016 -0,016 -0,014 -0,014 -0,012 -0,012 -0,01 -0,01 -0,008 -0,008 -0,008 -0,01 -0,01 -0,012 -0,012 -0,014 -0,014 -0,016 -0,016 -0,016 -0,018 -0,018 -0,018 -0,02 -0,02 -0,02 -0,02 -0,02 -0,02 -0,02 -0,018 -0,018 -0,02 -0,02 -0,02 -0,02 -0,018 -0,018 -0,014 -0,012 -0,008 -0,006 -0,002 0 0,002 0,006 0,008 0,01 0,012 0,012 0,014 0,014 0,016 0,016 0,016 0,016 0,018 0,018 0,018 0,018 0,018 0,016 0,016 0,016 0,016 0,014 0,014 0,014 0,014 0,016 0,018 0,02 0,022 0,024 0,026 0,028 0,03 0,03 0,032 0,032 0,034 0,034 0,036 0,038 0,038 0,04 0,04 0,042 0,044 0,044 0,046 0,046 0,048 0,05 0,05 0,052 0,052 0,054 0,054 0,056 0,056 0,056 0,056 0,056 0,056 0,056 0,056 0,056 0,056 0,056 0,056 0,058 0,058 0,06 0,062 0,064 0,066 0,068 0,07 0,072 0,074 0,076 0,078 0,08 0,08 0,082 0,082 0,084 0,084 0,084 0,084 0,086 0,086 0,084 0,084 0,082 0,082 0,082 0,082 0,082 0,082 0,084 0,086 0,086 0,088 0,09 0,09 0,092 0,092 0,094 0,096 0,098 0,1 0,102 0,104 0,106 0,106 0,106 0,106 0,106 0,106 0,106 0,106 0,104 0,104 0,104 0,104 0,104 0,102 0,102 0,102 0,102 0,1 0,1 0,1 0,098 0,098 0,098 0,098 0,098 0,098 0,098 0,096 0,096 0,096 0,096 0,096 0,096 0,094 0,094 0,092 0,092 0,09 0,09 0,088 0,088 0,086 0,084 0,082 0,082 0,08 0,078 0,078 0,076 0,074 0,074 0,072 0,07 0,068 0,066 0,064 0,064 0,062 0,062 0,062 0,062 0,062 0,062 0,062 0,06 0,06 0,058 0,056 0,054 0,052 0,05 0,048 0,046 0,044 0,042 0,04 0,038 0,036 0,034 0,032 0,03 0,026 0,024 0,022 0,02 0,018 0,016 0,016 0,016 0,016 0,016 0,016 0,014 0,014 0,014 0,012 0,012 0,012 0,01 0,01 0,01 0,008 0,008 0,008 0,008 0,008 0,008 0,008 0,008 0,008 0,008 0,008 0,008 0,006 0,006 0,006 0,004 0,002 0,002 0 -0,002 -0,002 -0,002 -0,002 -0,002 -0,002 -0,002 0 0 0 -0,002 -0,002 -0,002 -0,004 -0,004 -0,006 -0,008 -0,008 -0,01 -0,01 -0,012 -0,012 -0,014 -0,014 -0,016 -0,016 -0,016 -0,018 -0,018 -0,018 -0,018 -0,016 -0,016 -0,014 -0,012 -0,012 -0,01 -0,008 -0,006 -0,004 -0,004 -0,002 -0,002 -0,002 -0,002 -0,002 -0,004 -0,004 -0,006 -0,008 -0,008 -0,01 -0,01 -0,012 -0,012 -0,012 -0,014 -0,014 -0,014 -0,014 -0,014 -0,014 -0,016 -0,016 -0,016 -0,016 -0,016 -0,016 -0,016 -0,016 -0,016 -0,016 -0,016 -0,016 -0,014 -0,014 -0,012 -0,01 -0,008 -0,006 -0,004 -0,002 0 0 0,002 0,002 0,002 0 0 0 -0,002 -0,004 -0,006 -0,008 -0,012 -0,014 -0,018 -0,02 -0,022 -0,022 -0,024 -0,024 -0,024 -0,022 -0,022 -0,022 -0,022 -0,022 -0,02 -0,02 -0,02 -0,018 -0,018 -0,016 -0,014 -0,012 -0,01 -0,008 -0,006 -0,004 -0,002 0 0 0,002 0,004 0,006 0,008 0,01 0,01 0,01 0,01 0,01 0,01 0,008 0,008 0,008 0,006 0,006 0,006 0,004 0,004 0,004 0,004 0,004 0,004 0,004 0,006 0,006 0,008 0,008 0,008 0,008 0,006 0,006 0,004 0,004 0,002 0 0 -0,002 -0,004 -0,006 -0,008 -0,008 -0,01 -0,012 -0,012 -0,014 -0,014 -0,016 -0,016 -0,016 -0,014 -0,014 -0,014 -0,012 -0,012 -0,01 -0,01 -0,008 -0,008 -0,006 -0,006 -0,004 -0,004 -0,004 -0,004 -0,004 -0,004 -0,006 -0,008 -0,008 -0,01 -0,012 -0,014 -0,014 -0,016 -0,018 -0,018 -0,018 -0,018 -0,018 -0,018 -0,018 -0,016 -0,016 -0,016 -0,016 -0,016 -0,016 -0,016 -0,016 -0,014 -0,014 -0,014 -0,012 -0,01 -0,01 -0,008 -0,006 -0,004 -0,004 -0,002 -0,002 -0,002 -0,002 -0,002 -0,002 -0,002 -0,002 -0,002 -0,002 -0,002 -0,002 -0,002 -0,002 -0,004 -0,004 -0,004 -0,004 -0,006 -0,008 -0,008 -0,01 -0,012 -0,012 -0,012 -0,012 -0,012 -0,012 -0,012 -0,012 -0,012 -0,012 -0,012 -0,012 -0,012 -0,014 -0,014 -0,014 -0,014 -0,014 -0,014 -0,014 -0,014 -0,014 -0,014 -0,014 -0,016 -0,016 -0,016 -0,018 -0,02 -0,02 -0,022 -0,022 -0,022 -0,02 -0,02 -0,018 -0,018 -0,016 -0,016 -0,016 -0,016 -0,016 -0,014 -0,014 -0,016 -0,016 -0,016 -0,016 -0,018 -0,018 -0,018 -0,016 -0,016 -0,016 -0,014 -0,014 -0,014 -0,014 -0,014 -0,014 -0,014 -0,016 -0,016 -0,016 -0,016 -0,016 -0,016 -0,016 -0,016 -0,014 -0,014 -0,012 -0,01 -0,008 -0,008 -0,006 -0,006 -0,004 -0,004 -0,004 -0,004 -0,004 -0,004 -0,002 -0,002 -0,002 0 0 0 0,002 0,002 0,004 0,004 0,002 0,002 0 -0,002 -0,004 -0,004 -0,006 -0,008 -0,01 -0,012 -0,014 -0,016 -0,016 -0,018 -0,018 -0,018 -0,018 -0,018 -0,018 -0,018 -0,018 -0,018 -0,018 -0,018 -0,018 -0,018 -0,018 -0,016 -0,016 -0,016 -0,018 -0,018 -0,018 -0,02 -0,02 -0,022 -0,024 -0,026 -0,026 -0,028 -0,028 -0,028 -0,028 -0,028 -0,028 -0,026 -0,026 -0,024 -0,022 -0,02 -0,02 -0,018 -0,016 -0,014 -0,014 -0,012 -0,01 -0,01 -0,008 -0,008 -0,008 -0,008 -0,008 -0,01 -0,012 -0,012 -0,014 -0,016 -0,018 -0,018 -0,02 -0,02 -0,022 -0,022 -0,022 -0,022 -0,022 -0,022 -0,022 -0,022 -0,022 -0,022 -0,022 -0,022 -0,022 -0,022 -0,022 -0,022 -0,02 -0,02 -0,02 -0,02 -0,02 -0,02 -0,022 -0,022 -0,024 -0,024 -0,026 -0,028 -0,028 -0,028 -0,028 -0,028 -0,028 -0,028 -0,026 -0,026 -0,024 -0,024 -0,024 -0,024 -0,022 -0,022 -0,022 -0,022 -0,024 -0,024 -0,024 -0,026 -0,028 -0,028 -0,03 -0,032 -0,034 -0,036 -0,038 -0,038 -0,04 -0,04 -0,042 -0,042 -0,042 -0,042 -0,042 -0,042 -0,04 -0,038 -0,038 -0,036 -0,034 -0,032 -0,03 -0,028 -0,028 -0,026 -0,026 -0,024 -0,024 -0,022 -0,022 -0,022 -0,022 -0,022 -0,024 -0,024 -0,026 -0,028 -0,03 -0,03 -0,03 -0,032 -0,032 -0,032 -0,032 -0,032 -0,032 -0,032 -0,032 -0,032 -0,032 -0,034 -0,034 -0,034 -0,034 -0,034 -0,034 -0,034 -0,032 -0,032 -0,032 -0,032 -0,032 -0,032 -0,032 -0,034 -0,034 -0,034 -0,036 -0,034 -0,034 -0,032 -0,03 -0,028 -0,026 -0,022 -0,018 -0,014 -0,008 -0,004 0,002 0,008 0,016 0,024 0,034 0,044 0,056 0,07 0,082 0,096 0,11 0,124 0,138 0,152 0,166 0,178 0,19 0,202 0,212 0,222 0,232 0,24 0,246 0,252 0,254 0,256 0,256 0,254 0,252 0,248 0,242 0,234 0,226 0,216 0,204 0,19 0,176 0,16 0,144 0,126 0,108 0,09 0,072 0,054 0,034 0,018 0 -0,014 -0,03 -0,042 -0,054 -0,066 -0,076 -0,084 -0,094 -0,102 -0,11 -0,118 -0,126 -0,132 -0,138 -0,142 -0,146 -0,148 -0,148 -0,15 -0,15 -0,15 -0,15 -0,15 -0,15 -0,15 -0,15 -0,15 -0,15 -0,15 -0,15 -0,152 -0,152 -0,152 -0,152 -0,152 -0,152 -0,152 -0,152 -0,152 -0,152 -0,154 -0,154 -0,154 -0,154 -0,156 -0,156 -0,156 -0,156 -0,154 -0,154 -0,152 -0,15 -0,148 -0,144 -0,14 -0,136 -0,132 -0,126 -0,122 -0,116 -0,11 -0,104 -0,098 -0,092 -0,088 -0,082 -0,078 -0,074 -0,07 -0,068 -0,064 -0,062 -0,06 -0,056 -0,056 -0,054 -0,052 -0,052 -0,05 -0,048 -0,048 -0,046 -0,042 -0,04 -0,038 -0,034 -0,032 -0,028 -0,026 -0,024 -0,022 -0,02 -0,018 -0,016 -0,016 -0,016 -0,016 -0,016 -0,016 -0,016 -0,016 -0,016 -0,016 -0,018 -0,018 -0,016 -0,016 -0,014 -0,014 -0,012 -0,012 -0,012 -0,01 -0,01 -0,01 -0,008 -0,008 -0,008 -0,008 -0,008 -0,008 -0,008 -0,008 -0,008 -0,006 -0,006 -0,004 -0,002 0 0 0,002 0,004 0,006 0,008 0,01 0,012 0,014 0,014 0,016 0,016 0,016 0,016 0,016 0,016 0,014 0,014 0,014 0,014 0,014 0,014 0,016 0,016 0,016 0,016 0,016 0,016 0,016 0,016 0,016 0,016 0,016 0,016 0,016 0,018 0,018 0,02 0,022 0,024 0,026 0,026 0,028 0,03 0,03 0,032 0,034 0,034 0,036 0,038 0,04 0,042 0,044 0,044 0,046 0,048 0,048 0,05 0,05 0,052 0,052 0,054 0,054 0,056 0,058 0,06 0,06 0,062 0,064 0,066 0,066 0,068 0,068 0,07 0,07 0,07 0,07 0,072 0,074 0,076 0,078 0,078 0,08 0,082 0,084 0,086 0,088 0,088 0,09 0,092 0,092 0,094 0,094 0,094 0,094 0,094 0,094 0,094 0,094 0,094 0,094 0,094 0,094 0,096 0,096 0,098 0,098 0,1 0,1 0,102 0,104 0,104 0,106 0,106 0,106 0,106 0,106 0,106 0,104 0,104 0,102 0,102 0,1 0,1 0,1 0,1 0,1 0,1 0,1 0,1 0,102 0,102 0,104 0,106 0,106 0,108 0,108 0,11 0,11 0,112 0,112 0,112 0,112 0,112 0,11 0,11 0,108 0,108 0,106 0,104 0,102 0,1 0,098 0,096 0,094 0,092 0,092 0,09 0,09 0,09 0,09 0,09 0,092 0,092 0,092 0,094 0,094 0,094 0,094 0,092 0,092 0,092 0,09 0,09 0,088 0,088 0,088 0,086 0,086 0,084 0,084 0,082 0,082 0,08 0,08 0,078 0,076 0,074 0,072 0,07 0,068 0,066 0,066 0,064 0,062 0,062 0,06 0,058 0,056 0,054 0,052 0,052 0,05 0,05 0,048 0,048 0,046 0,044 0,044 0,042 0,04 0,038 0,036 0,034 0,03 0,028 0,026 0,024 0,022 0,02 0,018 0,016 0,014 0,012 0,01 0,008 0,006 0,004 0,004 0,004 0,004 0,004 0,004 0,004 0,004 0,004 0,002 0,002 0,002 0,002 0,002 0 0 -0,002 -0,004 -0,006 -0,008 -0,01 -0,012 -0,012 -0,012 -0,012 -0,012 -0,012 -0,014 -0,014 -0,016 -0,016 -0,018 -0,018 -0,018 -0,018 -0,018 -0,018 -0,02 -0,02 -0,022 -0,024 -0,024 -0,026 -0,026 -0,026 -0,026 -0,026 -0,026 -0,024 -0,022 -0,02 -0,018 -0,016 -0,014 -0,012 -0,01 -0,01 -0,008 -0,008 -0,008 -0,006 -0,006 -0,006 -0,006 -0,006 -0,006 -0,006 -0,006 -0,006 -0,008 -0,008 -0,008 -0,008 -0,008 -0,006 -0,006 -0,006 -0,006 -0,006 -0,004 -0,004 -0,004 -0,002 -0,002 -0,002 -0,002 -0,004 -0,004 -0,004 -0,006 -0,008 -0,01 -0,012 -0,014 -0,014 -0,016 -0,016 -0,018 -0,018 -0,018 -0,018 -0,02 -0,02 -0,02 -0,02 -0,02 -0,02 -0,02 -0,018 -0,018 -0,016 -0,016 -0,014 -0,012 -0,012 -0,01 -0,01 -0,01 -0,01 -0,01 -0,01 -0,012 -0,012 -0,014 -0,014 -0,014 -0,014 -0,016 -0,016 -0,016 -0,016 -0,018 -0,018 -0,018 -0,018 -0,02 -0,02 -0,018 -0,018 -0,018 -0,018 -0,018 -0,02 -0,022 -0,022 -0,024 -0,024 -0,024 -0,024 -0,024 -0,024 -0,022 -0,022 -0,02 -0,018 -0,018 -0,016 -0,016 -0,014 -0,014 -0,014 -0,014 -0,014 -0,014 -0,014 -0,014 -0,016 -0,016 -0,016 -0,016 -0,016 -0,018 -0,018 -0,018 -0,02 -0,02 -0,022 -0,022 -0,022 -0,024 -0,024 -0,022 -0,022 -0,022 -0,02 -0,018 -0,018 -0,016 -0,014 -0,014 -0,012 -0,012 -0,01 -0,01 -0,008 -0,008 -0,008 -0,006 -0,006 -0,008 -0,008 -0,01 -0,01 -0,012 -0,014 -0,014 -0,016 -0,016 -0,018 -0,018 -0,018 -0,018 -0,018 -0,02 -0,02 -0,02 -0,02 -0,02 -0,02 -0,022 -0,022 -0,022 -0,022 -0,024 -0,024 -0,024 -0,026 -0,026 -0,028 -0,028 -0,03 -0,03 -0,032 -0,032 -0,034 -0,034 -0,034 -0,034 -0,034 -0,034 -0,034 -0,034 -0,032 -0,032 -0,03 -0,03 -0,028 -0,028 -0,03 -0,03 -0,03 -0,03 -0,03 -0,03 -0,03 -0,03 -0,03 -0,028 -0,028 -0,026 -0,026 -0,024 -0,024 -0,022 -0,022 -0,022 -0,024 -0,024 -0,024 -0,026 -0,026 -0,028 -0,03 -0,03 -0,032 -0,032 -0,032 -0,032 -0,032 -0,032 -0,034 -0,034 -0,034 -0,034 -0,034 -0,034 -0,034 -0,034 -0,032 -0,032 -0,03 -0,03 -0,028 -0,028 -0,026 -0,024 -0,022 -0,022 -0,02 -0,02 -0,02 -0,02 -0,02 -0,022 -0,022 -0,022 -0,022 -0,024 -0,024 -0,024 -0,024 -0,024 -0,024 -0,024 -0,026 -0,026 -0,026 -0,026 -0,026 -0,026 -0,026 -0,026 -0,024 -0,024 -0,022 -0,022 -0,02 -0,018 -0,016 -0,016 -0,016 -0,016 -0,016 -0,016 -0,018 -0,018 -0,02 -0,02 -0,022 -0,022 -0,024 -0,024 -0,024 -0,026 -0,026 -0,026 -0,026 -0,026 -0,026 -0,026 -0,026 -0,026 -0,026 -0,026 -0,028 -0,028 -0,03 -0,03 -0,03 -0,03 -0,028 -0,028 -0,026 -0,026 -0,024 -0,022 -0,02 -0,02 -0,018 -0,018 -0,016 -0,016 -0,016 -0,016 -0,016 -0,016 -0,018 -0,018 -0,018 -0,018 -0,02 -0,02 -0,02 -0,02 -0,02 -0,022 -0,022 -0,022 -0,024 -0,024 -0,024 -0,026 -0,026 -0,028 -0,028 -0,03 -0,03 -0,03 -0,03 -0,03 -0,03 -0,028 -0,028 -0,026 -0,026 -0,026 -0,024 -0,022 -0,022 -0,02 -0,018 -0,016 -0,016 -0,014 -0,014 -0,012 -0,012 -0,01 -0,01 -0,012 -0,012 -0,012 -0,014 -0,014 -0,016 -0,018 -0,018 -0,02 -0,022 -0,022 -0,022 -0,022 -0,022 -0,022 -0,022 -0,02 -0,018 -0,016 -0,016 -0,014 -0,012 -0,01 -0,01 -0,008 -0,008 -0,008 -0,008 -0,01 -0,01 -0,012 -0,014 -0,014 -0,016 -0,016 -0,018 -0,02 -0,022 -0,024 -0,026 -0,028 -0,03 -0,03 -0,032 -0,034 -0,034 -0,034 -0,036 -0,036 -0,036 -0,036 -0,036 -0,034 -0,034 -0,032 -0,03 -0,028 -0,026 -0,024 -0,022 -0,022 -0,02 -0,02 -0,02 -0,022 -0,022 -0,022 -0,02 -0,02 -0,02 -0,02 -0,02 -0,02 -0,02 -0,02 -0,02 -0,02 -0,02 -0,02 -0,022 -0,022 -0,022 -0,024 -0,024 -0,024 -0,026 -0,024 -0,024 -0,024 -0,022 -0,02 -0,02 -0,018 -0,018 -0,018 -0,02 -0,02 -0,022 -0,022 -0,022 -0,024 -0,024 -0,024 -0,024 -0,024 -0,026 -0,026 -0,026 -0,026 -0,024 -0,024 -0,024 -0,024 -0,024 -0,024 -0,024 -0,024 -0,024 -0,022 -0,022 -0,02 -0,02 -0,018 -0,018 -0,016 -0,016 -0,014 -0,012 -0,008 -0,004 0,002 0,01 0,02 0,03 0,044 0,056 0,07 0,086 0,1 0,116 0,13 0,144 0,16 0,174 0,188 0,202 0,214 0,226 0,236 0,246 0,254 0,258 0,262 0,266 0,266 0,264 0,262 0,258 0,254 0,248 0,24 0,23 0,22 0,208 0,194 0,178 0,164 0,148 0,13 0,112 0,094 0,076 0,06 0,042 0,026 0,01 -0,002 -0,016 -0,028 -0,038 -0,048 -0,056 -0,066 -0,074 -0,082 -0,09 -0,098 -0,104 -0,112 -0,118 -0,124 -0,128 -0,134 -0,138 -0,14 -0,144 -0,146 -0,15 -0,152 -0,152 -0,154 -0,154 -0,156 -0,156 -0,158 -0,158 -0,158 -0,158 -0,158 -0,158 -0,158 -0,158 -0,156 -0,156 -0,156 -0,154 -0,154 -0,154 -0,154 -0,154 -0,152 -0,152 -0,152 -0,152 -0,15 -0,15 -0,148 -0,148 -0,146 -0,146 -0,144 -0,142 -0,14 -0,138 -0,136 -0,134 -0,132 -0,13 -0,128 -0,126 -0,124 -0,122 -0,118 -0,114 -0,108 -0,102 -0,096 -0,09 -0,082 -0,076 -0,068 -0,062 -0,054 -0,048 -0,042 -0,036 -0,032 -0,028 -0,024 -0,022 -0,018 -0,016 -0,014 -0,014 -0,012 -0,012 -0,01 -0,01 -0,01 -0,012 -0,012 -0,012 -0,012 -0,014 -0,014 -0,014 -0,014 -0,014 -0,014 -0,014 -0,012 -0,012 -0,01 -0,01 -0,008 -0,006 -0,006 -0,004 -0,004 -0,002 -0,002 -0,002 0 0 0 0 0 0 0 0 0 -0,002 -0,002 -0,002 -0,002 0 0 0 0,002 0,002 0,004 0,004 0,004 0,002 0,002 0,002 0 0 0 0 0 0 -0,002 -0,002 -0,002 -0,002 -0,002 0 0 0 0,002 0,002 0,004 0,004 0,004 0,004 0,006 0,006 0,008 0,008 0,01 0,01 0,012 0,014 0,016 0,016 0,018 0,018 0,018 0,02 0,02 0,022 0,024 0,028 0,032 0,036 0,038 0,042 0,046 0,048 0,05 0,052 0,054 0,056 0,056 0,056 0,056 0,056 0,056 0,056 0,056 0,056 0,058 0,06 0,06 0,062 0,064 0,064 0,066 0,066 0,068 0,068 0,068 0,068 0,068 0,068 0,066 0,066 0,068 0,068 0,068 0,07 0,07 0,072 0,072 0,072 0,074 0,074 0,076 0,076 0,078 0,08 0,082 0,084 0,086 0,088 0,09 0,09 0,09 0,09 0,09 0,09 0,09 0,09 0,09 0,09 0,09 0,09 0,088 0,088 0,088 0,088 0,088 0,088 0,086 0,086 0,086 0,084 0,084 0,082 0,082 0,08 0,08 0,08 0,08 0,08 0,08 0,082 0,082 0,084 0,084 0,084 0,084 0,086 0,086 0,086 0,088 0,088 0,088 0,088 0,09 0,09 0,09 0,09 0,088 0,088 0,088 0,088 0,088 0,088 0,088 0,088 0,088 0,088 0,088 0,088 0,088 0,088 0,088 0,086 0,086 0,084 0,084 0,082 0,08 0,078 0,076 0,074 0,072 0,07 0,068 0,066 0,064 0,062 0,06 0,06 0,058 0,056 0,054 0,054 0,052 0,052 0,05 0,048 0,048 0,046 0,046 0,046 0,044 0,044 0,042 0,042 0,04 0,038 0,036 0,034 0,032 0,03 0,026 0,024 0,022 0,02 0,018 0,016 0,016 0,016 0,016 0,016 0,016 0,016 0,016 0,016 0,016 0,016 0,016 0,016 0,016 0,016 0,016 0,016 0,016 0,016 0,014 0,014 0,014 0,012 0,012 0,012 0,01 0,01 0,008 0,006 0,006 0,004 0,002 0,002 0 0 -0,002 -0,002 -0,004 -0,004 -0,006 -0,008 -0,008 -0,01 -0,012 -0,012 -0,014 -0,016 -0,016 -0,016 -0,016 -0,016 -0,016 -0,014 -0,012 -0,01 -0,01 -0,008 -0,006 -0,004 -0,002 -0,002 0 0 0 0 0 0 0 0 -0,002 -0,004 -0,006 -0,008 -0,012 -0,014 -0,016 -0,018 -0,018 -0,02 -0,022 -0,024 -0,026 -0,03 -0,032 -0,034 -0,034 -0,034 -0,032 -0,03 -0,028 -0,024 -0,022 -0,022 -0,02 -0,018 -0,018 -0,018 -0,018 -0,016 -0,016 -0,016 -0,016 -0,016 -0,016 -0,014 -0,014 -0,012 -0,012 -0,01 -0,01 -0,008 -0,008 -0,006 -0,004 -0,002 0 0 0,002 0,004 0,004 0,004 0,006 0,006 0,004 0,004 0,002 0,002 0 0 0 -0,002 -0,002 -0,004 -0,004 -0,006 -0,006 -0,008 -0,008 -0,008 -0,01 -0,01 -0,01 -0,01 -0,01 -0,01 -0,01 -0,012 -0,012 -0,012 -0,012 -0,012 -0,012 -0,012 -0,012 -0,012 -0,012 -0,01 -0,01 -0,01 -0,008 -0,008 -0,008 -0,008 -0,008 -0,008 -0,008 -0,008 -0,008 -0,008 -0,01 -0,01 -0,012 -0,012 -0,012 -0,012 -0,012 -0,014 -0,014 -0,014 -0,014 -0,016 -0,016 -0,018 -0,018 -0,02 -0,022 -0,024 -0,026 -0,026 -0,028 -0,028 -0,028 -0,026 -0,024 -0,022 -0,018 -0,016 -0,014 -0,012 -0,012 -0,01 -0,01 -0,01 -0,01 -0,012 -0,012 -0,012 -0,014 -0,014 -0,016 -0,016 -0,018 -0,018 -0,02 -0,022 -0,022 -0,024 -0,026 -0,026 -0,028 -0,028 -0,028 -0,028 -0,028 -0,026 -0,026 -0,024 -0,024 -0,022 -0,02 -0,02 -0,018 -0,018 -0,016 -0,016 -0,014 -0,014 -0,014 -0,014 -0,012 -0,012 -0,014 -0,014 -0,014 -0,016 -0,016 -0,016 -0,016 -0,016 -0,016 -0,016 -0,018 -0,018 -0,02 -0,02 -0,02 -0,02 -0,018 -0,016 -0,016 -0,014 -0,014 -0,012 -0,012 -0,012 -0,012 -0,012 -0,012 -0,012 -0,012 -0,012 -0,012 -0,014 -0,014 -0,016 -0,016 -0,016 -0,016 -0,016 -0,018 -0,018 -0,018 -0,02 -0,02 -0,022 -0,022 -0,022 -0,022 -0,022 -0,022 -0,022 -0,024 -0,024 -0,024 -0,024 -0,024 -0,024 -0,024 -0,024 -0,024 -0,022 -0,022 -0,02 -0,02 -0,02 -0,018 -0,018 -0,02 -0,02 -0,02 -0,02 -0,022 -0,022 -0,022 -0,024 -0,024 -0,024 -0,026 -0,026 -0,026 -0,026 -0,024 -0,024 -0,022 -0,02 -0,018 -0,016 -0,016 -0,014 -0,014 -0,012 -0,012 -0,012 -0,012 -0,012 -0,012 -0,014 -0,014 -0,014 -0,016 -0,016 -0,016 -0,016 -0,016 -0,014 -0,014 -0,014 -0,012 -0,012 -0,01 -0,008 -0,008 -0,006 -0,006 -0,006 -0,006 -0,006 -0,006 -0,006 -0,006 -0,008 -0,008 -0,008 -0,008 -0,01 -0,01 -0,01 -0,01 -0,01 -0,012 -0,012 -0,012 -0,012 -0,012 -0,012 -0,012 -0,012 -0,012 -0,012 -0,012 -0,014 -0,014 -0,014 -0,014 -0,014 -0,016 -0,016 -0,018 -0,02 -0,022 -0,024 -0,024 -0,026 -0,026 -0,026 -0,026 -0,026 -0,024 -0,024 -0,022 -0,022 -0,02 -0,018 -0,018 -0,018 -0,016 -0,016 -0,016 -0,016 -0,016 -0,016 -0,016 -0,018 -0,018 -0,018 -0,018 -0,018 -0,018 -0,018 -0,018 -0,018 -0,018 -0,018 -0,018 -0,018 -0,018 -0,016 -0,016 -0,016 -0,014 -0,014 -0,014 -0,014 -0,012 -0,012 -0,014 -0,014 -0,014 -0,016 -0,016 -0,018 -0,018 -0,02 -0,02 -0,022 -0,024 -0,026 -0,026 -0,028 -0,028 -0,028 -0,028 -0,028 -0,028 -0,026 -0,026 -0,026 -0,026 -0,026 -0,024 -0,024 -0,026 -0,026 -0,026 -0,026 -0,026 -0,026 -0,026 -0,026 -0,024 -0,024 -0,022 -0,022 -0,022 -0,022 -0,022 -0,022 -0,024 -0,024 -0,024 -0,026 -0,026 -0,026 -0,028 -0,028 -0,03 -0,03 -0,03 -0,03 -0,032 -0,034 -0,034 -0,034 -0,036 -0,036 -0,038 -0,04 -0,04 -0,042 -0,042 -0,042 -0,042 -0,04 -0,038 -0,034 -0,032 -0,03 -0,03 -0,03 -0,028 -0,028 -0,028 -0,028 -0,028 -0,026 -0,026 -0,026 -0,026 -0,028 -0,028 -0,028 -0,03 -0,032 -0,032 -0,034 -0,034 -0,036 -0,038 -0,038 