0,0897898894445552
0,0918473095569527
0,0939149654062445
0,0961347675633948
0,0984377391144975
0,100815940011561
0,102968606549088
0,104841181016208
0,106498608641769
0,107974144661413
0,109329134246385
0,110417521304847
0,111216324283323
0,111762284639242
0,112149495261489
0,112322018179959
0,112402007760187
0,112360415948473
0,112081515359581
0,111425012839731
0,110490802161134
0,109404438534257
0,108286696065397
0,107077865973127
0,105662040632175
0,104133066287163
0,102522628188137
0,100831931097458
0,0991207596870948
0,0973586666714724
0,0954578248746045
0,093509699475349
0,0915729035854291
0,0895572479357294
0,0875811445394188
0,0855239615849659
0,0833576992567843
0,0810555387858534
0,078679702827814
0,0762607430177379
0,0738280299441307
0,0714683425448632
0,0690306159523051
0,0664576078276533
0,0636944379252355
0,0608350188938987
0,0579696822975252
0,0551266271643741
0,05218644067475
0,0491223325185843
0,0459965538104732
0,0428689745992451
0,03967994302138
0,0364600581435385
0,0330629982569834
0,0295240961009521
0,0259946252420669
0,0223856059167296
0,0186994903380902
0,0149387212329782
0,0111350217967121
0,00728963473692229
0,00325735298721286
-0,000837515692741375
-0,00505117488994458
-0,00923244590095254
-0,0136168531265669
-0,0180203942551618
-0,0225005298108486
-0,0270537783149983
-0,0316766772616187
-0,0363072032077412
-0,0410321635501897
-0,0458762426364825
-0,050716522452501
-0,0554641370704616
-0,0601509235214952
-0,064983249060047
-0,0700713247775599
-0,0753742352367748
-0,0807058816498366
-0,0858873273988187
-0,0909810607562602
-0,0960764599111055
-0,101376500759189
-0,106812291763465
-0,112170929596533
-0,117423574903679
-0,122659719709665
-0,127730974288473
-0,13281705313609
-0,138031966614233
-0,143250700232545
-0,148470180424071
-0,153599482730062
-0,158609824713716
-0,163620045272501
-0,168744240144993
-0,173769610353286
-0,178638130937364
-0,18338199940843
-0,188061493726978
-0,192705220832937
-0,197340606619665
-0,201906035555854
-0,206342273175973
-0,210738896881635
-0,215123342052522
-0,219551162462867
-0,2240169888568
-0,228398330104504
-0,232636037117305
-0,236644032944842
-0,240427634668239
-0,244079981801448
-0,247866363015955
-0,251660649179081
-0,255341501748607
-0,258763044872748
-0,261931748220223
-0,26514692408991
-0,268344537939483
-0,271433665310183
-0,274268363945993
-0,276913617021029
-0,279461278653182
-0,282175361604201
-0,285045630137192
-0,287915474631781
-0,290517106771727
-0,292915585621698
-0,29520284119012
-0,297467222400455
-0,299764235595356
-0,301883434403722
-0,303767936966828
-0,305449874391666
-0,306926097220714
-0,30830700627178
-0,309706573961307
-0,311098313541391
-0,312521489829999
-0,314082319230147
-0,315649193311991
-0,316957885871624
-0,317701718484409
-0,317961764068063
-0,31816139129372
-0,318769926247671
-0,319237168189946
-0,319173141236661
-0,31841131307903
-0,31738740926574
-0,31661114577833
-0,316029871655811
-0,315530050852354
-0,315052003045487
-0,314683707192279
-0,314308159997753
-0,313929099071118
-0,313339289159851
-0,31247788786755
-0,311521868144357
-0,310860356848714
-0,310440854800713
-0,310123078332891
-0,309794881144977
-0,309429605735353
-0,309326346217587
-0,309426849960035
-0,30970341122296
-0,310102662828378
-0,310722487449127
-0,311415799727895
-0,312088160525193
-0,312795142587895
-0,313388488998432
-0,31399422928316
-0,314587181062884
-0,315256931225526
-0,31614928447551
-0,317200320106306
-0,318177568311452
-0,318969262243375
-0,319727178243546
-0,32066046305753
-0,321943068243245
-0,323420907540852
-0,324792311301493
-0,32596655427911
-0,327096688724887
-0,32842718938049
-0,329930644582022
-0,331545638010853
-0,332880258574265
-0,333993754967283
-0,335247723805486
-0,336709709568799
-0,338264430728927
-0,339669940647905
-0,340890455986431
-0,342097537750336
-0,343788498560638
-0,346185287897404
-0,349235758523118
-0,352678189570389
-0,356136223713159
-0,359687167800999
-0,363356948889029
-0,36737897118604
-0,371851763383136
-0,376897371701812
-0,382107279250048
-0,387590051243192
-0,393071244713026
-0,398277664142224
-0,403268989853236
-0,408168234723368
-0,412803159475052
-0,417366071691134
-0,421422313033688
-0,424592119639911
-0,426809346261773
-0,428115227076816
-0,428348110486755
-0,427538467492939
-0,425874849096383
-0,423405091003184
-0,419824150229866
-0,414906206878738
-0,408477679358278
-0,400631721411877
-0,391786830486495
-0,382334310550524
-0,372670066436461
-0,362897065483466
-0,353057304569028
-0,34327469777064
-0,333490314184932
-0,323739064409988
-0,314325449760537
-0,305343112525368
-0,29685655681952
-0,288753527250103
-0,280982862208
-0,273463033432245
-0,266533372201935
-0,260536971121177
-0,255375486482089
-0,251165384654057
-0,247873395223336
-0,245310539355982
-0,243191833836139
-0,241522918279735
-0,240220476254891
-0,239296280281984
-0,238730507751361
-0,238258368023212
-0,237787219615272
-0,23746226485078
-0,237221295303569
-0,237066616148862
-0,236967652035789
-0,236799976625712
-0,236648888990919
-0,23663013074612
-0,236592262314139
-0,236685029964429
-0,23685076921705
-0,237028225020767
-0,237177060603719
-0,237284991184366
-0,237377308234561
-0,237546178920678
-0,237736120615875
-0,237886860102803
-0,238202876858676
-0,238738647960659
-0,239313178259863
-0,240018587491075
-0,240856753945216
-0,241707643448776
-0,242748855048874
-0,244156825718697
-0,245601814846428
-0,247266278473896
-0,24900337788804
-0,25078342470871
-0,252751260779069
-0,254929834450474
-0,257285933175729
-0,259848524374817
-0,262591605102055
-0,265458720383012
-0,268387472065166
-0,271459521217951
-0,274695586908051
-0,278063789415887
-0,281596800568577
-0,285176108746596
-0,288857742040086
-0,292813707311815
-0,297008667079398
-0,301291371491994
-0,305691082045481
-0,309996806905458
-0,314411137771899
-0,319135494784536
-0,323955371428246
-0,328748912156508
-0,333574744310535
-0,338461014743835
-0,343553039615447
-0,348632807215838
-0,353694469230101
-0,358734548922762
-0,363841001535095
-0,368772468580861
-0,373763317130095
-0,378750271545865
-0,38369934614607
-0,388548446340387
-0,393415950939819
-0,398238555848547
-0,402979856373388
-0,407871800573339
-0,412823013389588
-0,417777390841433
-0,422437375598829
-0,426767744015166
-0,430847956334137
-0,434967198210398
-0,439182745184848
-0,443495721386125
-0,447784185890892
-0,451860484155141
-0,455684554510224
-0,459316053562805
-0,462851033126448
-0,466233133089844
-0,469557176788381
-0,472649615832623
-0,475478532557769
-0,478218163111222
-0,480835323404776
-0,483448022283035
-0,486027837789301
-0,488485396477863
-0,490842513084989
-0,493299113655414
-0,495764662669433
-0,49829986497177
-0,500725200536042
-0,503099031086514
-0,505211356109012
-0,50709596207296
-0,508790159614911
-0,510328840360287
-0,51159446503716
-0,512675648185891
-0,513625723782333
-0,514617547714757
-0,515501824313791
-0,516521923165016
-0,517563848136209
-0,518573401996587
-0,519338041898816
-0,519999028601095
-0,520408285425869
-0,520668665876535
-0,520856086108459
-0,520622107028824
-0,520208727450331
-0,519678587426577
-0,51918931161396
-0,518720422846933
-0,518188111405051
-0,517409963934899
-0,516434239232411
-0,515429870593339
-0,51445815575736
-0,513615654055991
-0,512725838396019
-0,51178791192675
-0,510677955827533
-0,509663488054541
-0,50860081460908
-0,50752792439936
-0,506358503317081
-0,505060026573073
-0,503804961116532
-0,502677923004872
-0,501619507018832
-0,500665349459821
-0,499852315107398
-0,499123493643886
-0,498774673201098
-0,498683372135539
-0,498794107820351
-0,498906204791771
-0,499060450421755
-0,499296451035712
-0,499618589312449
-0,500030076370555
-0,500412220350469
-0,500969690455765
-0,501520481244702
-0,502063079649606
-0,50247642223145
-0,503029691795239
-0,5037506462554
-0,504814731264961
-0,506070545191974
-0,50736912438823
-0,508354103942363
-0,509298390039099
-0,510118628301253
-0,510885009891407
-0,511634835959779
-0,512249414646799
-0,513021247075166
-0,514057608320968
-0,515056980516423
-0,51587737245692
-0,51629004720207
-0,516571197945531
-0,516870276880965
-0,517455077067851
-0,518530125414813
-0,520200315932364
-0,522618587984375
-0,525454001888541
-0,528795343887616
-0,532802065702619
-0,537137117514099
-0,541734335101211
-0,546374075107813
-0,551124879025778
-0,556344692187061
-0,562035417546952
-0,568266080399624
-0,574930203468288
-0,581684817470951
-0,588310169958785
-0,594563209137846
-0,600686152006109
-0,606540484094399
-0,61204745188968
-0,617069684024045
-0,621268265667748
-0,624904168269094
-0,62787961729919
-0,630272416690712
-0,631672540278462
-0,632045694075011
-0,631114646134762
-0,628763721247243
-0,62498613574655
-0,619669434078553
-0,613122660555511
-0,605314432540894
-0,596134150004175
-0,585756532895147
-0,57477074320942
-0,563199719812225
-0,551366264073728
-0,539504041076619
-0,527640495686711
-0,515860471633289
-0,50430862103287
-0,492924651695667
-0,48197886106896
-0,471332829546675
-0,460760372007933
-0,450237980408559
-0,440161749307393
-0,430752175829362
-0,422079944425484
-0,414276928193797
-0,407628858820715
-0,401885075536772
-0,397158567975904
-0,39314898888194
-0,389761210408675
-0,38677476294172
-0,384231671817464
-0,38213999566285
-0,38044572697358
-0,378881561235453
-0,377654766903159
-0,376910508354698
-0,376284210270704
-0,375708940038678
-0,374971277327042
-0,374045342512026
-0,3731161244825
-0,372217343303632
-0,371232650236301
-0,370158008852265
-0,36913812818635
-0,368171229553937
-0,367254305792272
-0,366353831305574
-0,365646024881933
-0,365063270893778
-0,364777025997668
-0,364636604778582
-0,364759693546375
-0,364966354876685
-0,365318095208128
-0,365813078938121
-0,366508050373888
-0,367521924303343
-0,368644339732349
-0,369964968925661
-0,371424672280938
-0,373080279482098
-0,37501792914065
-0,377029717218569
-0,379179664028785
-0,381411058466269
-0,383750278186276
-0,386484919885193
-0,389605003956744
-0,393163978212589
-0,396862724823364
-0,400411659709088
-0,403848065047307
-0,407319163746944
-0,411147889986797
-0,415415791000486
-0,420022825977872
-0,424755441778764
-0,429406047413753
-0,433913444749482
-0,438487112552693
-0,443159589841954
-0,448019614479833
-0,453212151631586
-0,458459087124048
-0,46375066902252
-0,469168577369139
-0,474705450781265
-0,480475868799644
-0,486385866600699
-0,492312217865027
-0,498159786208717
-0,504038426986355
-0,509972506753741
-0,51598997315179
-0,521971152487019
-0,528178312038769
-0,534386097687367
-0,540669198058893
-0,5468715821982
-0,552876014395622
-0,558835954813958
-0,564718399604999
-0,570569862082152
-0,576348985694366
-0,582054409155077
-0,587657852802238
-0,593159117423227
-0,5983470024848
-0,603425043575385
-0,60856627682324
-0,613792564396348
-0,619241785180776
-0,624638281959434
-0,629861190506276
-0,634762709246772
-0,639260683823039
-0,643514318363501
-0,647735387323493
-0,651860159722901
-0,655943245447602
-0,660002830717289
-0,664029021302298
-0,667903115856902
-0,671428048461294
-0,674707901097236
-0,677954334383912
-0,681246381681191
-0,684542382875662
-0,687599248228281
-0,69021146425294
-0,692416056996848
-0,694426878418966
-0,696634672795071
-0,699066884991055
-0,701541262920955
-0,704176825722413
-0,706826677764354
-0,709229173121145
-0,711449560584271
-0,713637349264573
-0,715818945276851
-0,718020773707579
-0,72009354837418
-0,721828193677737
-0,723398699122086
-0,724948545263487
-0,72629547052972
-0,727470538817101
-0,728329045833831
-0,728999345254138
-0,729584034451136
-0,730125930868454
-0,730428770180396
-0,73083058404012
-0,731214615797214
-0,731577697021493
-0,731853317241757
-0,732071150608505
-0,731939862816262
-0,731705949192204
-0,731492764121242
-0,731415337744011
-0,731404674174343
-0,731638030951387
-0,7319765141538
-0,73237509033342
-0,73320118544811
-0,734276090551688
-0,735568812895366
-0,736904357426084
-0,738230851061132
-0,73952689171869
-0,740915127053022
-0,742243899301492
-0,743568932992169
-0,745331474710646
-0,747225178053373
-0,749216868418468
-0,751040270557322
-0,752614316295446
-0,754037163408831
-0,755642422926988
-0,75734536021351
-0,75906125960466
-0,760676105995579
-0,762219905558005
-0,763864314161061
-0,765778625580538
-0,767838119402008
-0,769835005423367
-0,771683386934328
-0,773202297244751
-0,774594996840179
-0,776213529614182
-0,778053764275356
-0,780029718736444
-0,782056639388472
-0,78390095126899
-0,785718116153873
-0,78771620409168
-0,789794956086865
-0,792034633977039
-0,79419454806137
-0,796397364966452
-0,798496198547895
-0,800429613514098
-0,801986096283514
-0,803285723717806
-0,804393478991642
-0,805940312278381
-0,808184397511582
-0,811635831074483
-0,816290501596541
-0,821640814237043
-0,827369446923086
-0,833160419894512
-0,838724719200115
-0,844382912181516
-0,850315144963105
-0,856881007803594
-0,863748810652908
-0,8709653941022
-0,878390114953163
-0,885639799960273
-0,892153164569351
-0,897489494377311
-0,901660226089064
-0,904650793463702
-0,906685427441204
-0,907963622437535
-0,908275861741913
-0,907539104024664
-0,905548148849533
-0,902116067374863
-0,897408240270863
-0,891382333895962
-0,883912593826722
-0,875181291121947
-0,86520180623279
-0,853944122552662
-0,84150459450828
-0,82821717368823
-0,814203439587089
-0,799733631785529
-0,78502764882181
-0,770302970223071
-0,755855440090173
-0,741645721509499
-0,727839592627163
-0,714417700406543
-0,701627996324653
-0,689905085595996
-0,679367668617871
-0,670354122345799
-0,662548185276876
-0,655896356476092
-0,650274962818322
-0,645522973110594
-0,641409079620288
-0,638052396348243
-0,635151433885326
-0,63243525920123
-0,629992742966849
-0,627757991321545
-0,62580917911292
-0,624164739204971
-0,622634541124953
-0,621540651053593
-0,620733009672804
-0,620212807515529
-0,619887450531252
-0,619747461888323
-0,619513811983765
-0,619150048693314
-0,618587963494292
-0,617967844797803
-0,617432305161984
-0,617127519257778
-0,616964189529817
-0,616887079995735
-0,616928815050784
-0,617086776471488
-0,617357155501097
-0,617797104358456
-0,618224712465029
-0,618543520095555
-0,618867983468783
-0,619285621455318
-0,61991800501219
-0,620982946636229
-0,622190909679038
-0,62366837901024
-0,625421155513159
-0,62739174546158
-0,629609362919723
-0,632043489454666
-0,634605055182796
-0,637296431683545
-0,640088319515804
-0,642886877178114
-0,645804445440234
-0,64889597569524
-0,651979737604549
-0,65520567665051
-0,65857610749427
-0,662000722288113
-0,66565399433722
-0,669467781523863
-0,673377532301117
-0,677324647787046
-0,681428630921189
-0,685478480382756
-0,689765838782762
-0,694372604348771
-0,699148812625893
-0,704037159614074
-0,70897677920135
-0,713660570821972
-0,718374271853776
-0,723071896422766
-0,72783650483035
-0,733032634450751
-0,738457722042597
-0,74402165897078
-0,749507680976393
-0,754843054563707
-0,760013569228761
-0,765221892561868
-0,770588784440093
-0,776086221331866
-0,781774087515629
-0,787648982146521
-0,793496578949146
-0,799248991936338
-0,804838306661964
-0,810408734128629
-0,815864213036917
-0,821286774422333
-0,826608427948116
-0,831851415235349
-0,837041540016088
-0,842117926693021
-0,847134459447517
-0,852173121884476
-0,857080415895183
-0,861946668300874
-0,866409770224379
-0,870609009269629
-0,874593365193476
-0,878565372777217
-0,882674968016971
-0,886686631254861
-0,890511292607528
-0,894082000489902
-0,897628227031902
-0,901146343716846
-0,904548452221746
-0,907895485062966
-0,911189813819703
-0,914371677535627
-0,917375362590747
-0,920014404973529
-0,922219424601906
-0,924311240205213
-0,926142040723278
-0,927959032957176
-0,929893492367
-0,931838879066561
-0,933679166850936
-0,935381437249134
-0,93694205225853
-0,938202580885275
-0,939333867918947
-0,940542000766754
-0,942042657504487
-0,943608728095342
-0,944916955825477
-0,94581382361406
-0,946559350483255
-0,947328057170068
-0,948186876286513
-0,949061119206988
-0,9499018536074
-0,950531100987689
-0,9508527621025
-0,951098813469912
-0,951173098927541
-0,951133036310154
-0,95110533815938
-0,951009344212764
-0,95072916107344
-0,950175775776728
-0,949262499504187
-0,948058532098514
-0,946667059083893
-0,944948574671059
-0,943025906754258
-0,941049935217819
-0,938967700795331
-0,936910298706977
-0,934950263235777
-0,933128495589415
-0,93145308285392
-0,929994311055239
-0,928638459163992
-0,927236591990976
-0,925759296259365
-0,924205229655207
-0,922931644060409
-0,922001786653095
-0,921155628924845
-0,92033819102371
-0,919366618482492
-0,918264220132684
-0,91714569883716
-0,916250050989007
-0,915551539259397
-0,914662288983905
-0,913695859924246
-0,912675532452823
-0,911837931383161
-0,911067068456447
-0,91048843722217
-0,909864203360797
-0,909312755170134
-0,90874270810437
-0,907935984050482
-0,906972090683723
-0,905966921399454
-0,90501421335
-0,904451566560454
-0,90398851946793
-0,903686118424218
-0,903451864241219
-0,903200419902021
-0,903089092271273
-0,903060672211268
-0,902960575431621
-0,902689197493771
-0,90232975996372
-0,90200427017129
-0,901867606481972
-0,901834431880673
-0,901788957319354
-0,901520371203787
-0,901172837105264
-0,900776901916856
-0,900337375200138
-0,900217670202551
-0,900505780108688
-0,901271963434169
-0,902366123866273
-0,903849261272626
-0,90581895096966
-0,908053140076277
-0,910367513232131
-0,912848564786486
-0,915671934861621
-0,91912818462788
-0,923175208116163
-0,927229621445349
-0,931050043362006
-0,933930723128242
-0,935554785477279
-0,936068202071624
-0,93584076665411
-0,93482969972581
-0,933294503305376
-0,931201722943456
-0,92822493823968
-0,924186388879718
-0,919027627762659
-0,912746159986568
-0,90541997067271
-0,897070627912967
-0,887942378777893
-0,877967862822004
-0,867300064943478
-0,855797756637713
-0,843497649954607
-0,830491285014773
-0,816818603959364
-0,802883962981362
-0,788905216317431
-0,775030932985025
-0,761457594546783
-0,74816842350107
-0,735450351553354
-0,723295210035573
-0,711996234311272
-0,701766189207646
-0,692583832961873
-0,684480845132185
-0,677361324737674
-0,671215115726454
-0,666151849575797
-0,661799697727936
-0,658016540912868
-0,654743471942979
-0,651918097408925
-0,649267107957559
-0,646785546987704
-0,644462486261471
-0,642582259181772
-0,640863241637909
-0,639389565885139
-0,638009872979978
-0,636719225294073
-0,635482176252125
-0,634291340756135
-0,633016183278485
-0,631824944613918
-0,630714868987056
-0,62954149400769
-0,628365320564235
-0,627238468384363
-0,626149686695214
-0,625003397998931
-0,623825889830741
-0,622703172736863
-0,621634558959194
-0,620704830565764
-0,619756125742218
-0,618758419344146
-0,617926673229915
-0,61708676508783
-0,616508646114632
-0,616096549086301
-0,615726626329575
-0,615516474034337
-0,615381058745172
-0,61538416836018
-0,615405526804665
-0,615504140872631
-0,615795206715518
-0,616215828148938
-0,616677400119258
-0,617242510504724
-0,617853015766883
-0,618687454098165
-0,619712228755418
-0,620926633008111
-0,622360469071708
-0,623716625473833
-0,625176097362925
-0,626793195805618
-0,628502709956393
-0,630274671588325
-0,63228889480402
-0,634453297813849
-0,636823458107983
-0,639244008773289
-0,641827945136271
-0,644512551252006
-0,647328943191667
-0,650159425159274
-0,653182753532747
-0,656213147314872
-0,659271026754652
-0,662410854699914
-0,665634476238182
-0,668882784969895
-0,672274785802784
-0,675595417273399
-0,678981059427826
-0,68248261300198
-0,68598002959294
-0,689561852594068
-0,693225202907001
-0,696757428592889
-0,700355889646119
-0,70404222530766
-0,707606164702213
-0,711136251222683
-0,714599096825964
-0,718078454314195
-0,721537354557768
-0,725027888825252
-0,728486198071153
-0,731881284803535
-0,735152852089129
-0,738416314264953
-0,741631121116939
-0,744760294029788
-0,747653256680792
-0,750460609108359
-0,75312315004868
-0,755786679463824
-0,75838484340585
-0,760823188506663
-0,763099864933565
-0,765361825235516
-0,767607210094241
-0,769712257213882
-0,771582475279672
-0,773424558823876
-0,775149940738686
-0,776850546288301
-0,778612367046321
-0,780161628830342
-0,781585523233559
-0,782674761214537
-0,783672423026815
-0,784464156801221
-0,78508202249742
-0,78558019837385
-0,786070242577978
-0,786490383054968
-0,786722658391966
-0,786829580577091
-0,786870080513665
-0,786838566017536
-0,786733025988895
-0,78652454992573
-0,786035396486284
-0,785598792504857
-0,785158909103302
-0,784658755330099
-0,784249951002266
-0,783516948918475
-0,782760180763205
-0,781828842541813
-0,78060496335479
-0,779385327397904
-0,778071691518107
-0,776687734512905
-0,775203326888743
-0,773565001861527
-0,771692364784826
-0,769559981891859
-0,767168080854788
-0,76458255553365
-0,761904504463701
-0,759025224877348
-0,755894546486218
-0,752637972325687
-0,749196903513848
-0,745600563600846
-0,741969579655319
-0,738279319504358
-0,734624682374118
-0,731066534376595
-0,727547429217083
-0,724135433123053
-0,720932702353878
-0,717863338777562
-0,715057702424971
-0,712401194782487
-0,709835454126015
-0,707542410006553
-0,705378306764333
-0,703261568706852
-0,70113991009633
-0,699164865373149
-0,69730749557624
-0,695419339832142
-0,693738630885491
-0,692087636880643
-0,690528888778886
-0,688881083125352
-0,687317920090976
-0,68592762053413
-0,684621512996159
-0,683252355595869
-0,681913140808376
-0,680633509583515
-0,679439531270134
-0,678297514263193
-0,67715042966438
-0,675913130183574
-0,674764030691676
-0,673697482085572
-0,672828576167035
-0,671977171556364
-0,6711436192478
-0,670269680837805
-0,669415439818067
-0,668608108639546
-0,667933479664271
-0,667300443448426
-0,666742193567757
-0,666052851312998
-0,665560843441199
-0,664964078161574
-0,664261649532023
-0,663639058700483
-0,662925574715132
-0,662272608695616
-0,66179275754007
-0,661769633691506
-0,662420068762003
-0,663751311248461
-0,665620806457241
-0,667917850955519
-0,670392586520052
-0,673040265246414
-0,676000283833218
-0,679525750516973
-0,683540649537917
-0,687847232909348
-0,692122391904263
-0,695945661613337
-0,699311313251542
-0,70189254316756
-0,703581693038814
-0,704636671184289
-0,705144294484171
-0,705103424581012
-0,704419015210988
-0,702457972292962
-0,699188164719203
-0,694733112884649
-0,689092940111948
-0,682532285260237
-0,675089602066123
-0,666847921424676
-0,657451944685761
-0,64705829475097
-0,635641645997605
-0,623502158801348
-0,610942184877306
-0,598145621238935
-0,58535369735872
-0,572562617760752
-0,559788352661002
-0,547311672401676
-0,535264601862139
-0,523964553235245
-0,513405776863834
-0,50370703480661
-0,495044715656178
-0,487407847537355
-0,481116256911434
-0,475774085428824
-0,471218841003434
-0,467162718239855
-0,463487784183986
-0,460249511976393
-0,457383900276717
-0,454974635483453
-0,452748047763222
-0,450675492230772
-0,44899548622007
-0,447491777733944
-0,446272675856704
-0,445147665919791
-0,444049317278768
-0,443002783854382
-0,441945311757195
-0,440872670089078
-0,43986725036612
-0,438924736313652
-0,438045545329317
-0,437136243823943
-0,436126678580308
-0,435067351907719
-0,434163492702936
-0,433353158156464
-0,432606066993472
-0,431863819544404
-0,431244908456193
-0,430744713891713
-0,430298845572075
-0,430025777171306
-0,429991374091211
-0,430022457908716
-0,430030129493918
-0,430129281436081
-0,430583627677976
-0,431122595669095
-0,431747546695917
-0,432490313046628
-0,433170554128225
-0,434022693928455
-0,435137106699756
-0,436456573819214
-0,438071545429437
-0,43959436505159
-0,441169291119877
-0,442911273141874
-0,444815738712322
-0,4469719569272
-0,449143483212936
-0,451539146523714
-0,45415564087773
-0,456923975131701
-0,459748268225496
-0,462777664047906
-0,465894163240023
-0,4691297878162
-0,472481326657999
-0,475939625469323
-0,479616270857093
-0,483295945226246
-0,487188848302651
-0,491089215214515
-0,495022010155594
-0,49895241738966
-0,503117545533541
-0,507391175334874
-0,511705686422488
-0,515848199184745
-0,520141320522555
-0,524396670189731
-0,52872827277622
-0,53313301202661
-0,537698041588442
-0,54215193988648
-0,546579488988527
-0,550974020012291
-0,555419105520627
-0,55988355829561
-0,564278811228974
-0,568781078364054
-0,573116547572681
-0,577279731021235
-0,581440833172564
-0,585655289221336
-0,589653992251328
-0,593555691042297
-0,597536504774894
-0,601200604507767
-0,604927901139149
-0,6085956521556
-0,612263997963964
-0,615782115598449
-0,619147984471738
-0,622474334293656
-0,625575052047907
-0,628626171537576
-0,63150845544169
-0,634256230946221
-0,636839273697888
-0,639278767591236
-0,641687319014295
-0,643977285772621
-0,646154838715916
-0,648077308368329
-0,649748418109311
-0,651254942134415
-0,652977716260239
-0,654671867319735
-0,656215653601294
-0,657518985442152
-0,65864174712226
-0,659850014676067
-0,660901277029438
-0,661885908435693
-0,66280404170368
-0,663382685269653
-0,663830506822364
-0,664178043765332
-0,664547274969891
-0,664766127167354
-0,664932070375471
-0,664903502330048
-0,664769530857939
-0,664521860175682
-0,664186237099102
-0,663765071150578
-0,663321732832173
-0,662647668291811
-0,661624527178446
-0,660347237176154
-0,658910669052887
-0,657293695829537
-0,655359183296127
-0,653057781730638
-0,650753668027164
-0,648267141918154
-0,645900190845282
-0,643387625743401
-0,640849751145538
-0,638439733138455
-0,635858340057496
-0,633100382886596
-0,63033993650626
-0,627574155020483
-0,624837825705811
-0,622229096851186
-0,619693761740535
-0,617235031491902
-0,615065937497789
-0,61313004375657
-0,611314791313376
-0,609719832039055
-0,608231520795261
-0,606881500143508
-0,605669779570185
-0,604478056154832
-0,603458779767507
-0,602347245144841
-0,601145890271169
-0,600121915310524
-0,599303486089156
-0,598513795667316
-0,597818690474639
-0,5971023435186
-0,596364878122984
-0,595694268499415
-0,595144446263703
-0,594564341804187
-0,594138151902484
-0,593811029513972
-0,593464804527684
-0,593187508075289
-0,593067180774142
-0,592921148398432
-0,592838661070573
-0,592762528628327
-0,592782001191722
-0,592803464935855
-0,592911417335245
-0,592984154623991
-0,593144988502331
-0,593221969021556
-0,593366488331412
-0,593543493534526
-0,593777702182706
-0,594071694555169
-0,594462112502242
-0,594742963477756
-0,595059686964532
-0,59569702902013
-0,596932687367143
-0,598920246440912
-0,601691615367599
-0,605275397292417
-0,60937114725084
-0,613422153096053
-0,617305601159842
-0,621172992682432
-0,625144195827033
-0,629064830255857
-0,633105114662158
-0,637524413514711
-0,642399379101789
-0,647571352763407
-0,652618218017892
-0,657266708204133
-0,661208247632658
-0,664362466320767
-0,66661595249559
-0,667801267902632
-0,667704043581352
-0,666603228498047
-0,664543214826381
-0,66138290307515
-0,65708974474046
-0,651510175309795
-0,644440052069058
-0,63577460907436
-0,625682968398223
-0,614331482110515
-0,602215493471817
-0,589418906118112
-0,57596806355258
-0,561978198924805
-0,547707281261694
-0,533342727950412
-0,51931340972618
-0,50575542109857
-0,492687858025306
-0,480036155202896
-0,467719927471421
-0,456079668183889
-0,445221759753764
-0,435441657343361
-0,426828918432705
-0,419350329526281
-0,412938947576535
-0,407552651435296
-0,403056963061772
-0,399284770532802
-0,396008171704125
-0,393204388978063
-0,390842396403656
-0,388826711346326
-0,387180248955588
-0,385836920900772
-0,384795209371703
-0,383782881712534
-0,382791267427251
-0,381808076992684
-0,380853835005496
-0,379983080203885
-0,379134363066896
-0,378130226842416
-0,37714698043925
-0,376265881756012
-0,375386486816524
-0,374563097199371
-0,373888809730829
-0,373037147092276
-0,372126839088736
-0,371152255589976
-0,370255349856393
-0,36946328690658
-0,368776322871611
-0,36813851503824
-0,367525572740902
-0,366968185166783
-0,366760632122492
-0,36669219687731
-0,366704574624926
-0,366708970584619
-0,366797053891123
-0,367115492503963
-0,367598819446727
-0,36812895947044
-0,368771891812784
-0,369470483227417
-0,370281169716151
-0,371229906793133
-0,372285270082131
-0,373567047112118
-0,375046232518457
-0,376695039927029
-0,378393069941438
-0,380133492412511
-0,382030189636964
-0,38414205457309
-0,386349897329353
-0,388715029875243
-0,391115900225941
-0,393668828661703
-0,396281553153131
-0,398980152535842
-0,401854047689028
-0,404782896131451
-0,407792795673402
-0,410964852433722
-0,414320430550276
-0,417797824370382
-0,421364637170313
-0,424777499365177
-0,428237086418449
-0,431736663043353
-0,435362125952281
-0,439138439338194
-0,443033215962203
-0,44674572532324
-0,450479052408014
-0,454221728259313
-0,457936565562363
-0,461711861066078
-0,46545900022943
-0,469176038357887
-0,472948891134706
-0,476682991354323
-0,480309480682422
-0,483881394275954
-0,487546770867311
-0,49091575314992
-0,4943108816218
-0,497753482474764
-0,501146560004941
-0,504424789532209
-0,507616649929446
-0,51072132063257
-0,51376368994238
-0,516707685188749
-0,519697726073105
-0,52267205002488
-0,525360312168004
-0,527942165335503
-0,530507001946148
-0,53292848891067
-0,535290065984896
-0,537621364629899
-0,539865355948677
-0,541783318651596
-0,543643909053571
-0,545264538304536
-0,54687977268577
-0,548280095486462
-0,549586475280876
-0,550741759853736
-0,55159614601348
-0,552358386826427
-0,552939573674166
-0,553578911650902
-0,554189892176964
-0,554626255205903
-0,554856490984548
-0,55508337145352
-0,555421827144983
-0,555753725893737
-0,556145037451415
-0,556454368251252
-0,556655103477851
-0,556473203333553
-0,55625914647112
-0,55592050959126
-0,55540367412641
-0,554717144565529
-0,553772002802134
-0,552745264478062
-0,551667495455376
-0,550477829621514
-0,549265412752447
-0,548062020216548
-0,546718953983827
-0,545267998912323
-0,543716402543851
-0,54204449405529
-0,540293544617043
-0,538232872594563
-0,53586603061467
-0,533346507299029
-0,530710593503841
-0,528051941005856
-0,525314180204532
-0,522626186525372
-0,520058274450889
-0,517645553791112
-0,515512242187242
-0,513667863902697
-0,512182989551889
-0,510705138871344
-0,509296643607854
-0,507901494645353
-0,506641794173106
-0,505400591073396
-0,504121885713005
-0,502926580263932
-0,501873434876217
-0,500898125674411
-0,499966818757628
-0,499171173774357
-0,498395468082293
-0,497613029950799
-0,496855748585176
-0,496004291800034
-0,495233370058031
-0,494600543489582
-0,493988851489235
-0,493399674315015
-0,492832001675652
-0,492311722678323
-0,491925687410685
-0,491494783757616
-0,491319225216898
-0,491163738775867
-0,490910201756151
-0,490556413328704
-0,49034158807217
-0,490354947653259
-0,490505268793868
-0,49076231764866
-0,491005628420453
-0,491170915175189
-0,49143650740848
-0,491715953460243
-0,492099722445346
-0,49244041121915
-0,492769899495897
-0,4932031557546
-0,493674665589424
-0,494272507566166
-0,494878568487366
-0,495375916208559
-0,495765921500606
-0,49619516694338
-0,496719984195806
-0,497400295475927
-0,49850347170559
-0,499959340690566
-0,502012880900111
-0,504810675864519
-0,508470265802771
-0,512697044575816
-0,517470939139002
-0,522268203247677
-0,52668348843963
-0,530483538489079
-0,533634031899055
-0,536122651639289
-0,537871224751598
-0,538894067994988
-0,5399052354785
-0,540914745703731
-0,54155554267254
-0,541584882905909
-0,540823298547139
-0,539093579488849
-0,536245244271072
-0,532122821632981
-0,526844889597157
-0,520395244584776
-0,512976752450271
-0,504761608834485
-0,495619443271153
-0,485601387962674
-0,474855788997047
-0,463692776871767
-0,452133097212709
-0,440050979472744
-0,42758771096851
-0,414756609544384
-0,401955229704072
-0,389378486815076
-0,377232067966361
-0,365661994149605
-0,354890383700763
-0,34488617651823
-0,335910192269921
-0,327922263989194
-0,320823872470442
-0,314303324821452
-0,308306670456119
-0,302802171949438
-0,297842447060219
-0,293419228462994
-0,289229044107515
-0,285475856467315
-0,282118641013199
-0,27911403009341
-0,27651012598028
-0,274114806073044
-0,271915249616086
-0,269750986055442
-0,267757959068604
-0,265920890939469
-0,264257356023109
-0,262849461243832
-0,261630511147587
-0,260294737997583
-0,258897292397478
-0,257490877482269
-0,256244118245831
-0,255119428947182
-0,253966826157239
-0,252847261367947
-0,251786414986668
-0,250899008851775
-0,250121662974948
-0,24951410985534
-0,249083473715928
-0,248744265759569
-0,248462424411628
-0,248202678595362
-0,248083321745185
-0,248048107584907
-0,248310342610694
-0,248754057535905
-0,249231631026475
-0,249830923461445
-0,250520254332287
-0,251330085155217
-0,252353028952797
-0,253564567388992
-0,254965919454762
-0,256341388102641
-0,257894812482988
-0,259625021035901
-0,261503952284549
-0,263505935304437
-0,265362645802298
-0,267309556004108
-0,269641899092335
-0,272209691639461
-0,274894659183985
-0,277723786505504
-0,280603336451634
-0,28370911515583
-0,286916923951253
-0,290252585543044
-0,293743122656508
-0,297297226636999
-0,30091144920749
-0,304639721982426
-0,30856408548425
-0,312618977871921
-0,316714328456897
-0,320849117458579
-0,325226154763754
-0,329776363851806
-0,334491667122734
-0,339248055636403
-0,344072732355926
-0,348814788939876
-0,353409958431826
-0,358086816502009
-0,362807967139929
-0,36753840488177
-0,372394336175375
-0,377102902262322
-0,381926749877948
-0,386679690115443
-0,39144269628423
-0,396090530964784
-0,400832023114162
-0,405425975511207
-0,409953342493282
-0,414496259449152
-0,418991621492978
-0,423527535649555
-0,427982345583359
-0,432294155915315
-0,43654868311819
-0,440768301618846
-0,444918005959607
-0,448877301876337
-0,452857370933998
-0,456588878543243
-0,460184393147074
-0,463695503237886
-0,467205468328075
-0,470740187018919
-0,474090085675925
-0,477195583586308
-0,480115402951014
-0,482787506101886
-0,485416989123678
-0,487973456902637
-0,490401995995853
-0,492439082187047
-0,494294497801548
-0,496053693695103
-0,497743540810006
-0,499364010692261
-0,501006525825687
-0,502523464880142
-0,504031997156744
-0,505407857589944
-0,50676942498967
-0,507970306495281
-0,509075072630822
-0,510059233513857
-0,510986159651111
-0,511798499604538
-0,512496281834046
-0,513108815273426
-0,513610400531434
-0,513887458877889
-0,514027822229309
-0,514023099940914
-0,514046574782697
-0,513831027621109
-0,513387087868068
-0,512665567075146
-0,511792950108429
-0,510739719343746
-0,509506799697192
-0,508253433239588
-0,506843590918834
-0,505287655509392
-0,503679079575932
-0,502018674196961
-0,500306050431391
-0,498657969673786
-0,496893560099579
-0,495074574791261
-0,493205367967221
-0,491587946040909
-0,489988847885797
-0,488595396024266
-0,48741328699316
-0,486243254043075
-0,485331332416081
-0,48467859881066
-0,484105703952878
-0,483556430026283
-0,483069572275667
-0,482709653789584
-0,482355962122824
-0,481976835740454
-0,481632035598921
-0,481232491814922
-0,480840317951047
-0,480371168310256
-0,480009030974486
-0,479781938961594
-0,479687473260242
-0,479786585359989
-0,479958581787969
-0,480081588024518
-0,480122761489724
-0,480316402848075
-0,480482029212681
-0,480712272581286
-0,481098583899666
-0,481493370296221
-0,481989301708609
-0,482552382970425
-0,483235307729274
-0,484006499832049
-0,484983232932109
-0,486129244626227
-0,487435228842969
-0,488744286626115
-0,490027393635046
-0,491079776323204
-0,491940429145416
-0,492563981888907
-0,493140489136749
-0,493762582885211
-0,494687920061551
-0,496220917555092
-0,498451628029216
-0,501350790937067
-0,50486008344933
-0,508806622165594
-0,513055318130682
-0,51720998665769
-0,521653849380073
-0,526259235634825
-0,530805937634341
-0,535343338292478
-0,53995134846582
-0,544534215153362
-0,549093626914328
-0,553368900692931
-0,55719075694833
-0,56080226168524
-0,564086648782904
-0,566747783850133
-0,568371030374237
-0,568803886313162
-0,567852322315503
-0,565616010166195
-0,56219784227369
-0,557559900875731
-0,551884452282138
-0,545070121910157
-0,537200495599791
-0,528233381053724
-0,518237489584862
-0,507038594512323
-0,49470597158188
-0,481185461497716
-0,467037652520503
-0,452788919560135
-0,438580115463992
-0,424440942829733
-0,410233764686382
-0,396094096872275
-0,38224181041187
-0,368982388460154
-0,356681302788047
-0,345228574724388
-0,334336398867208
-0,323813372634731
-0,313774221652011
-0,304305733397541
-0,295585126515789
-0,28787652665585
-0,281441981964804
-0,27630007613692
-0,272284508330529
-0,268991409000591
-0,266381673648112
-0,264423511724857
-0,263024323488082
-0,261960176817126
-0,261292933888456
-0,260895678203894
-0,260698901617161
-0,260698819086826
-0,260896407702148
-0,261201203092639
-0,261520331360543
-0,261846350489861
-0,262198670435509
-0,262751437224892
-0,263174924474981
-0,263465072041583
-0,263645824341097
-0,263770330364025
-0,263802612303778
-0,264033568094476
-0,264307622123596
-0,264472741919604
-0,264553749381705
-0,26469375035704
-0,26497368021138
-0,265265882514981
-0,265688897346536
-0,266275785471748
-0,266907224191471
-0,267518880143882
-0,268312372681237
-0,269315990952805
-0,270413993342459
-0,27160541699061
-0,272944307345711
-0,274365187946159
-0,275954984766031
-0,277685873488508
-0,279412888946126
-0,281137487290607
-0,283007545984901
-0,285079520005183
-0,287323222941268
-0,289678016349853
-0,292200431096035
-0,294772477307788
-0,297483566375149
-0,300359786625677
-0,303545605185718
-0,306828132962892
-0,310238334248879
-0,313714560303197
-0,317340421637255
-0,321050726378417
-0,3248705430683
-0,328856630243081
-0,332979105057348
-0,337240974668475
-0,341612413149051
-0,34593692945964
-0,350327566347914
-0,354929047085989
-0,359438468803091
-0,363945565421545
-0,368447429388198
-0,37296805254573
-0,377561907234849
-0,382134653915273
-0,386685766102346
-0,39115612790556
-0,395543984356209
-0,39993065975932
-0,40430722748988
-0,408702384612752
-0,413144837669279
-0,417330407881764
-0,421400142563471
-0,425345039199783
-0,429337759208011
-0,433166651458123
-0,437012701610456
-0,440728772135117
-0,444339865169241
-0,447956452678227
-0,45151209533833
-0,454913444939848
-0,458102367424544
-0,461049971268039
-0,463872567257113
-0,466505945358222
-0,469155419845265
-0,471611511946321
-0,473906167794212
-0,475890803185848
-0,477801099044427
-0,479720333861223
-0,481465823926555
-0,483096319891956
-0,484759623343507
-0,486185180699067
-0,487400052626981
-0,488549612205588
-0,489604692802914
-0,490509218896932
-0,491266866432397
-0,491672691107851
-0,49187671429263
-0,491875326444642
-0,491752749938541
-0,491684639124742
-0,491494025798374
-0,491302784477512
-0,491197575519891
-0,490905303020099
-0,490485746898912
-0,489739830142298
-0,488864646179763
-0,487812235035108
-0,486526265052362
-0,485156567878903
-0,483585784485285
-0,481818430358317
-0,479830874130585
-0,477567756498047
-0,475178671949038
-0,472635065716759
-0,470236487261445
-0,467893439812315
-0,46546144675051
-0,462975323810269
-0,460467496174829
-0,458026587871473
-0,45561932943491
-0,453335582855573
-0,451090708360113
-0,448650063776398
-0,446102330048305
-0,443472817620387
-0,441000181378421
-0,438869315347901
-0,436878505313075
-0,435005395817882
-0,433074076379228
-0,431385590549496
-0,429912915603097
-0,428663147306679
-0,42755557796545
-0,426446195787889
-0,425426489671167
-0,42455391539329
-0,423673793801072
-0,422844799667018
-0,42207060894043
-0,421297517678795
-0,420525630230486
-0,419961261673052
-0,41933738260127
-0,418772466682867
-0,418242118911621
-0,417573113421213
-0,416910785352684
-0,416426178706843
-0,416057255806663
-0,415867500990771
-0,415619212754791
-0,415401612745882
-0,415156282340376
-0,41494551533151
-0,414771835080046
-0,414669435973337
-0,414704192892714
-0,414966537013242
-0,415679119792003
-0,417200460497952
-0,419319729506242
-0,421744379213578
-0,424284132098819
-0,426816871755818
-0,429512209739642
-0,43271081112016
-0,43651087729495
-0,440620543682599
-0,444935733040438
-0,449065535088721
-0,452919072789882
-0,456493301044247
-0,459877768796105
-0,462804583370598
-0,465127679195575
-0,466587260177221
-0,467465998662647
-0,468018325287176
-0,468350963969442
-0,468487492949862
-0,468340245377476
-0,46758596833206
-0,466107439377993
-0,463566692324548
-0,459673275088335
-0,454280358444521
-0,447595670935698
-0,439760791105982
-0,43124148863717
-0,422204453288941
-0,413090528501016
-0,403651383323449
-0,394079122335825
-0,384180280637338
-0,373977042917431
-0,363546516821771
-0,353258652609838
-0,343126034834313
-0,333230618644848
-0,323544446902815
-0,313857964966246
-0,304405758080065
-0,295362745411694
-0,286883051155201
-0,27870975832775
-0,270943505373452
-0,263531489546267
-0,25651010131628
-0,249921826100035
-0,243933604124436
-0,238750198501634
-0,234313018889793
-0,230619901459988
-0,227632467416242
-0,225401597571839
-0,223925754195395
-0,223054767927628
-0,222418105092814
-0,221956725694938
-0,221573966052986
-0,221386497440804
-0,221608394746127
-0,222098757690702
-0,222593601971866
-0,223147504273015
-0,223565206766551
-0,223831858621992
-0,22405919822765
-0,224487972202866
-0,225095336545053
-0,225975616558685
-0,227098872475267
-0,228220639039876
-0,229211182319773
-0,229818761052968
-0,230120805410934
-0,230526326523886
-0,231120955484471
-0,23208417437354
-0,233297888970924
-0,234497602711826
-0,235742161123426
-0,236991806098786
-0,238267712045854
-0,239684856933764
-0,241270367835114
-0,24287447002348
-0,24461812258528
-0,246439420657453
-0,248363138712421
-0,250443350651267
-0,252768210932572
-0,255338061060684
-0,25803375858095
-0,260885010838138
-0,263949653075542
-0,266836694367157
-0,269930893126912
-0,273288913022952
-0,276789363338139
-0,280281591863059
-0,283877346470035
-0,287538372636391
-0,291381208825896
-0,295225969788135
-0,299133033093767
-0,30315921419151
-0,307118703632113
-0,311185476680748
-0,315328507397226
-0,319398438448388
-0,323392333805259
-0,327453678788515
-0,331488086424997
-0,33570120300601
-0,33997416117154
-0,344310034499358
-0,34870596285873
-0,352918832790692
-0,357273888404052
-0,361557296706451
-0,365912637842484
-0,370219910879769
-0,374479836745195
-0,378716464216723
-0,38283072957347
-0,38684665311257
-0,390853959283504
-0,394731399660031
-0,398328407413828
-0,401763902064431
-0,405036033790111
-0,408142914798191
-0,411143580362477
-0,414156817185813
-0,416972098280439
-0,419793670700528
-0,422555047684455
-0,425129972045397
-0,427693381913286
-0,430128525384589
-0,43226005166116
-0,434296875079781
-0,436233346534664
-0,438035708025382
-0,439765195611471
-0,441365885572395
-0,442783025716835
-0,443926583302073
-0,44491267939884
-0,445859787674181
-0,446675408945794
-0,447418236960402
-0,44791026474968
-0,44821131968456
-0,448172589897013
-0,448007372389384
-0,447573894149627
-0,447029167961773
-0,446109413483327
-0,444905797070533
-0,44338986831076
-0,441833134154194
-0,440241110894704
-0,438503345541108
-0,436713186305269
-0,434928729295564
-0,433056868198832
-0,431216650613123
-0,429411173820007
-0,427644744608443
-0,425710706390703
-0,423635484254362
-0,421654066622693
-0,419615948320711
-0,417488965039638
-0,41536166491619
-0,413088285933895
-0,410758538300684
-0,408578092030439
-0,406514782811655
-0,404451004970042
-0,402513006214804
-0,400468459036119
-0,398468157939078
-0,396536232324934
-0,394428468323213
-0,392443300750756
-0,390341277869084
-0,388029369258902
-0,385654759881618
-0,38330842637356
-0,381295918284195
-0,379567847946419
-0,377863940208954
-0,376192301130232
-0,374644153988129
-0,37333766889401
-0,372215352125295
-0,371341688816983
-0,370456669437544
-0,36962722660428
-0,368975310718724
-0,368407175145421
-0,367857191640724
-0,367505956930927
-0,36709001320105
-0,366675206881155
-0,366114011496848
-0,365554124279697
-0,364905341723897
-0,364349365715043
-0,363890986836395
-0,36379624318397
-0,364373189651815
-0,365652193834194
-0,367483349140002
-0,369753371862771
-0,372064573743501
-0,374415550805679
-0,377006395103308
-0,380082787091851
-0,383796774422535
-0,38794560033125
-0,392364321464129
-0,396774548550866
-0,40101868064653
-0,405002468340285
-0,408758327326268
-0,412203885064514
-0,415263874261541
-0,417510291231736
-0,419111437482485
-0,420294033162946
-0,420983470280987
-0,421318380936214
-0,421027252483896
-0,419723613285214
-0,41726095095828
-0,41400102718012
-0,410005295264909
-0,405422822263972
-0,400252435662424
-0,394905175718122
-0,389514082352434
-0,384294046258219
-0,379335655145951
-0,37455021383721
-0,369756395163677
-0,364521827936187
-0,358638746613906
-0,352222519055431
-0,34566263828583
-0,339236133247141
-0,332841672990071
-0,326256004610514
-0,319303673932154
-0,311772679757269
-0,303869243261943
-0,295688283596064
-0,287429200301631
-0,279118043759809
-0,270896852614896
-0,26272723004513
-0,254693948625572
-0,246830429610782
-0,239329734735293
-0,232089796919354
-0,225180831043417
-0,218461011899763
-0,212062924075326
-0,20615451807771
-0,200998928239187
-0,196505675001276
-0,19270521893668
-0,189805159571279
-0,187863340675847
-0,186697608822072
-0,186091967194997
-0,185735538725154
-0,185756824125072
-0,18600887558863
-0,186491214057089
-0,187020496517681
-0,187686475868894
-0,18855555823276
-0,189479605270559
-0,190359496344914
-0,191180342679992
-0,192080782067166
-0,19299678470739
-0,193898334942389
-0,194781088038667
-0,195661608055786
-0,196528321686571
-0,197496301758861
-0,198443920398404
-0,199337381649798
-0,200231902523797
-0,201360792364994
-0,202509724898619
-0,203825358596305
-0,205188389734758
-0,206600236513168
-0,208145415386525
-0,209846310267494
-0,211672706288482
-0,213746809987242
-0,215951803054395
-0,218108734640737
-0,220480346340537
-0,222970804528813
-0,225723376314363
-0,228584924075221
-0,231676653542308
-0,234699053205986
-0,237678334706288
-0,240878572473775
-0,244294335580435
-0,247922631106121
-0,251703133650153
-0,255457205412313
-0,259153829937532
-0,262938892554303
-0,26680827619748
-0,270909094700983
-0,275005377789967
-0,279039266525615
-0,283155522109155
-0,287286751842657
-0,291543683828422
-0,296043036763876
-0,300456303266401
-0,3046635487608
-0,308843624499787
-0,312993679837746
-0,317168244018831
-0,321394946901819
-0,325644047932656
-0,329911534395251
-0,334220311949139
-0,338648313545491
-0,343095398774494
-0,347377147915722
-0,351435787400078
-0,355275638245075
-0,359219582458536
-0,363436956497026
-0,367561648260562
-0,371174908916146
-0,374199085371401
-0,376683037839939
-0,378756191956199
-0,380833606383931
-0,382877904071393
-0,385090789758578
-0,38728850301959
-0,389376353342413
-0,391467041973101
-0,39346468785061
-0,395366032422771
-0,397143279827105
-0,398828385680645
-0,40038757299908
-0,40184681627079
-0,403141829557626
-0,404388800340257
-0,40552818584365
-0,406379702394588
-0,407037324299836
-0,407414486065591
-0,407688165382297
-0,407735287717969
-0,407823024774189
-0,407772093683434
-0,407403192602033
-0,406717445661343
-0,40586711300557
-0,404767725611691
-0,403483588386052
-0,40211182983694
-0,400630028104388
-0,399159811061736
-0,397642323699529
-0,39599180211394
-0,394005294124213
-0,39187004636301
-0,38946965317416
-0,387126982332347
-0,385126115851676
-0,38338906481772
-0,381787698484743
-0,380030118110369
-0,377743669827566
-0,374971560019304
-0,371933783035502
-0,368729525918013
-0,365486027698466
-0,362241457523396
-0,359030412946368
-0,35597060873306
-0,352938344248514
-0,349988049137437
-0,347203471463672
-0,344523156957621
-0,341859970948917
-0,339191320819964
-0,336615345374184
-0,334346181160981
-0,332355406226725
-0,33061587452039
-0,32886738678144
-0,327240027938842
-0,32567983791705
-0,324425765677915
-0,323537534234674
-0,322804218153578
-0,32207350985982
-0,32140288410892
-0,320879115096432
-0,320586633897619
-0,320490397100457
-0,320558989813435
-0,320496244463357
-0,320363378148613
-0,320191099028762
-0,319835547095408
-0,319422358192242
-0,319166200098607
-0,319066034068783
-0,318935595306357
-0,318651942068755
-0,318309010728626
-0,318031189688554
-0,318086945519099
-0,318642683420876
-0,319583492780112
-0,321007949722116
-0,322515671877227
-0,32427711033597
-0,326371369606932
-0,32887410593321
-0,331827075239744
-0,335238152109469
-0,338937270583301
-0,342765212308223
-0,346690718909031
-0,350704754674098
-0,355084116125909
-0,359627607005677
-0,363967929415594
-0,367965435274527
-0,371488762792978
-0,374667683853659
-0,377649298041206
-0,380458773506916
-0,382773370540235
-0,384611483112394
-0,385996162975289
-0,386889396555034
-0,387310436336293
-0,387307701430927
-0,386724467437034
-0,385292632037363
-0,382566897040761
-0,378032252157027
-0,371910109936834
-0,364354447550795
-0,356050749156566
-0,347387771651483
-0,338431949626283
-0,328708098240895
-0,318233934126511
-0,306983341461091
-0,295226419440041
-0,283235487038837
-0,270904408473143
-0,258432948535301
-0,246225873221192
-0,234328239698698
-0,222730220133599
-0,211549984645899
-0,201005639811228
-0,1910483386755
-0,181477040552636
-0,172445898110709
-0,163931132943162
-0,156068692519966
-0,149155478663943
-0,143373918017005
-0,138839874562336
-0,135276917001647
-0,132591781547262
-0,130693832130646
-0,129308567911039
-0,128505938151307
-0,128105037824071
-0,127862886281605
-0,127985376462675
-0,128467485361739
-0,129128516649416
-0,129499646066165
-0,129624122681889
-0,129479339654608
-0,129388074637404
-0,129255864773995
-0,128966034050222
-0,128313932233141
-0,127601001300263
-0,126881191840084
-0,126295076848805
-0,12586844108921
-0,12556848941324
-0,125239304699335
-0,124873743751891
-0,124496277474805
-0,124311831203158
-0,124317938494301
-0,124455953035465
-0,124634366956627
-0,125027634592811
-0,125633308472999
-0,126361099722274
-0,127414809545968
-0,128699453341255
-0,130215097512291
-0,131780154015587
-0,133420426583484
-0,135250769860932
-0,137386066951649
-0,13979600811922
-0,142358899085366
-0,145098323786442
-0,148241733763825
-0,151743551058644
-0,155565435764856
-0,159380995944048
-0,16290263489509
-0,165936464626611
-0,168761818289568
-0,171765569750733
-0,175265326616682
-0,179337366474101
-0,183699505516415
-0,188158696228584
-0,192588823717415
-0,197136887945817
-0,201946345764554
-0,206804488314447
-0,211505759425563
-0,215875026480717
-0,22038856526342
-0,225009283304644
-0,229938007855708
-0,234872969665048
-0,239603840933341
-0,244245988562398
-0,248741392347256
-0,253064846183406
-0,257338727370552
-0,261537753927769
-0,265395152565361
-0,269324848328324
-0,273312867863751
-0,277845567114127
-0,282897266594773
-0,2880335982627
-0,293073609650492
-0,297543439274705
-0,301421509537249
-0,30495325332322
-0,308378055940921
-0,311902422216917
-0,315551211982893
-0,319314099382609
-0,323147953922671
-0,326921822686927
-0,3307802771551
-0,334632435543426
-0,338470552289436
-0,341842798818107
-0,344166259867961
-0,345673546582475
-0,346888741996736
-0,348353237845913
-0,349941521595611
-0,351380497343598
-0,352345604013863
-0,353112233197862
-0,354035265197126
-0,355071019320349
-0,356144200759445
-0,357028340759825
-0,357535756304969
-0,357877306434602
-0,35820882288408
-0,358390885242443
-0,357951149829205
-0,356802633742518
-0,355101998789905
-0,353549641616155
-0,352460493755643
-0,351882466798997
-0,351352618004967
-0,350696161018277
-0,349850669233092
-0,348869628397097
-0,347865066238228
-0,346890430565054
-0,345584366663388
-0,344126930539915
-0,342754339090334
-0,341699275571955
-0,340716373520991
-0,339329556390567
-0,337433161780154
-0,33524832713897
-0,333017060764178
-0,331062088143199
-0,329081616296207
-0,327056510376906
-0,32487975618119
-0,322793390466586
-0,320851833393476
-0,319047401043917
-0,317343166977935
-0,315769156339115
-0,31427114343802
-0,31291328139622
-0,311758580233061
-0,310662705623741
-0,30972161451848
-0,308762939574535
-0,307907203510894
-0,307150654488794
-0,306554101702545
-0,306213644396848
-0,306107107355388
-0,306178329681643
-0,306096873515571
-0,305611780220943
-0,304795338383201
-0,304022156051815
-0,303499454249732
-0,303360955906328
-0,303652637409186
-0,304324404364934
-0,305350804027739
-0,306584566060565
-0,307735598863474
-0,30875523573286
-0,309441160064125
-0,310006943977442
-0,310540609118107
-0,311064425561199
-0,311632315439056
-0,312302963005095
-0,313315573355794
-0,314841342271393
-0,317034949866866
-0,319685519069026
-0,322796878571353
-0,326471602982565
-0,330402406746543
-0,334229481416514
-0,337832090841403
-0,34149832024741
-0,345505587531989
-0,349979050406546
-0,354806165113587
-0,35993312904202
-0,365184369426061
-0,370506339795611
-0,375558641662337
-0,380434737071482
-0,384876627587346
-0,389132511333173
-0,393243185165375
-0,397015145282694
-0,399963131422737
-0,402109128128359
-0,403706849819173
-0,404892718278916
-0,405718762170181
-0,405939263087475
-0,405130211081996
-0,402922291487812
-0,399327713185812
-0,394625429881671
-0,389126905854937
-0,38278710765826
-0,375614544520431
-0,367551727440514
-0,358682561034584
-0,349051870025505
-0,338910452743221
-0,328485608944902
-0,31788977427459
-0,306930532058686
-0,295286296108316
-0,283113444575065
-0,270760620536748
-0,258766464685323
-0,247135397637976
-0,235776969260769
-0,224381527170408
-0,213084739949409
-0,202150217164672
-0,191674314215561
-0,181608307472743
-0,171906015629247
-0,16252259023895
-0,153678106278676
-0,145503768061644
-0,138319843155841
-0,132365004482381
-0,12758779539854
-0,123907829794462
-0,121176939936959
-0,119026717074348
-0,117407512669388
-0,116240511545811
-0,115543196990984
-0,115210034664869
-0,115184602793761
-0,115316695027559
-0,115364654055156
-0,115746593128279
-0,116195098642493
-0,116466056340869
-0,116519077266275
-0,116582020880742
-0,116644807974808
-0,116642303587923
-0,116539786847625
-0,116393902457276
-0,116168606206884
-0,116003527200746
-0,11595278678351
-0,116013116919248
-0,115943358334789
-0,115587764658585
-0,115235768198545
-0,115030323014139
-0,11493985294976
-0,115054713286099
-0,114983562108264
-0,114721694203126
-0,114563171192458
-0,11435200006656
-0,114049309690472
-0,113858834865368
-0,114058386198622
-0,114723230035452
-0,115744682584591
-0,116853409256237
-0,11834372780595
-0,120129281439858
-0,122311424803229
-0,124691564706609
-0,127298312820585
-0,130034825218445
-0,132955479376506
-0,135908461012605
-0,139011499120443
-0,142233510835013
-0,145721543563013
-0,149378857729971
-0,153139222715254
-0,157031430449933
-0,160936651505835
-0,164736037514558
-0,168695024179215
-0,172866902783426
-0,177031878200069
-0,181298278479517
-0,185571802036975
-0,189850769786062
-0,194222553568579
-0,1986502411728
-0,203034778359324
-0,207400204403712
-0,21165338929859
-0,215790225448472
-0,219649402763935
-0,223301464360702
-0,226733788678757
-0,230244454814056
-0,234170393992827
-0,238556970734862
-0,243208238517582
-0,247823798850732
-0,25214991833036
-0,256019457562616
-0,25953827813737
-0,262757138487359
-0,266088915427645
-0,269347647727955
-0,272432862955611
-0,275426943100683
-0,278541335386763
-0,281694653817794
-0,284709346804448
-0,287517860352636
-0,289962351637769
-0,292278757702661
-0,294383197701791
-0,29631129369136
-0,298336530526285
-0,300462887715184
-0,302690830073516
-0,30493300951639
-0,307372859142561
-0,309503561062229
-0,311318531760662
-0,312500354303666
-0,312846219747371
-0,312881051612749
-0,312753709177741
-0,312714007995964
-0,313016592132044
-0,313373551834047
-0,313610613017772
-0,313665889791082
-0,313414125763302
-0,31275809755698
-0,311777417195117
-0,310640690717264
-0,309251714496895
-0,307520199682585
-0,305237440623387
-0,302860407498883
-0,300955379390871
-0,299556834329451
-0,298209361698355
-0,296531162825886
-0,294460152616921
-0,292180357097095
-0,29006458094409
-0,288006331732504
-0,285676248281561
-0,283063501973629
-0,280098598885161
-0,276776473318023
-0,273547972017695
-0,270445586569622
-0,267498284391422
-0,264620311070757
-0,262030745527682
-0,259743731862272
-0,257835660548153
-0,256106330423336
-0,254405833968121
-0,252673324034504
-0,251061297926071
-0,249425810259254
-0,247919367816507
-0,246509241855051
-0,245041991185019
-0,24345558762136
-0,241934180512658
-0,240574058829566
-0,239104593105594
-0,237457755056766
-0,235831440655147
-0,234496412181215
-0,233678033237538
-0,233091984651765
-0,23265308118971
-0,231995889015707
-0,231415935387304
-0,231070641006227
-0,230999133143087
-0,230905320103375
-0,230842180122636
-0,230680989557186
-0,230503959691305
-0,230338274505812
-0,230215870660686
-0,230078433830386
-0,229895730200951
-0,229905869181493
-0,229959095007871
-0,230177595267378
-0,230293301785423
-0,230275990203154
-0,230158721296903
-0,230063568786136
-0,229961385011848
-0,229851102800239
-0,229792596863263
-0,229873841486551
-0,23052836612078
-0,231697421020726
-0,233352898250814
-0,235622825161045
-0,238159655305935
-0,240886699422845
-0,243638293160984
-0,24663672279712
-0,250344660726114
-0,25471759138054
-0,259772216444617
-0,265316901841288
-0,271126170131538
-0,277091845975519
-0,283021569623088
-0,288761852469179
-0,293955376189842
-0,298418076847156
-0,301744032030911
-0,303974717837264
-0,304922977749811
-0,304443718539915
-0,302877974278999
-0,300573656621964
-0,297552754846038
-0,293472521660078
-0,287952310955916
-0,28087825943021
-0,272052959653593
-0,261522345312187
-0,249654046324395
-0,236601949749456
-0,222708446183788
-0,2082642618725
-0,19353069079898
-0,178553216067485
-0,163431081619819
-0,148502584735979
-0,134173012222163
-0,120343968193083
-0,106910074827283
-0,0937953676020697
-0,0811349591876933
-0,0692117353746653
-0,0584307220860865
-0,0486957859316135
-0,0400634995171458
-0,0324066750340535
-0,0257131690409551
-0,0199113238049904
-0,0149578086561633
-0,0107778306301043
-0,00714556508592068
-0,00400865038454867
-0,00136624700189714
0,000727390924112115
0,0024569866618549
0,00400483498560789
0,00528248736736714
0,00637840656054323
0,00705292264228774
0,00761018595767382
0,00808600352229405
0,00854789139157219
0,00903413253217877
0,00964046570788923
0,0102834132330827
0,0108490833117685
0,0113712529255281
0,011672754673782
0,0119314531948476
0,012208091296543
0,0124791704197378
0,012662659516991
0,0129461087922209
0,0130646991501635
0,0132281939436325
0,0133768511809649
0,0135412177664875
0,0136054382405746
0,0135134370850665
0,013173886673485
0,0128516630179547
0,012515218425051
0,0120463638094179
0,0112671396418591
0,010417922576238
0,00940858500388231
0,00823685969510279
0,00690046993349824
0,00551905146733134
0,00394746837764615
0,0020991456815409
0,00012297113880777
-0,00210292028759795
-0,00436990833804884
-0,00673533495910306
-0,00928344149906479
-0,0120082373482546
-0,0149389934886131
-0,0180488105215773
-0,0212474659651889
-0,0245595066303395
-0,0280106698314739
-0,0316267023908949
-0,0354052706770744
-0,0394085925909167
-0,0434269806837619
-0,04757648011946
-0,0518231241921967
-0,0563098764569077
-0,0610613975413798
-0,0658961847775572
-0,0707534669181769
-0,0756298431251707
-0,0805464213963205
-0,0856731310859686
-0,0909761098509989
-0,0963946243755345
-0,10168626793984
-0,106994108430627
-0,11231118291289
-0,117898890653123
-0,123540543285344
-0,129260924774826
-0,134787176360987
-0,140173324507487
-0,145591698639691
-0,151066997314047
-0,15656773923547
-0,162214855041384
-0,167707358106782
-0,173098074861628
-0,178406941793583
-0,183683166294941
-0,188950237456083
-0,194205935456921
-0,199269929211368
-0,204226640287743
-0,209039739911532
-0,213942433050761
-0,218927699848791
-0,22387259856805
-0,22859561707628
-0,233004256147979
-0,23739504387413
-0,241794965022564
-0,246021241009657
-0,250132527669848
-0,254069120934219
-0,257798197182638
-0,261373574247045
-0,264792852040046
-0,267999793784838
-0,271029566214565
-0,273763714616507
-0,276346136963184
-0,278857370200058
-0,281377960724058
-0,283783463251893
-0,286045636039489
-0,288019068084395
-0,289764511664544
-0,291490321409583
-0,293136508706084
-0,294856457794594
-0,296388788397962
-0,297797852832446
-0,299022500410501
-0,300058941349562
-0,301024088807026
-0,301766493737887
-0,302349223045894
-0,302776744832954
-0,303135425352593
-0,303542120862403
-0,303848934949201
-0,304029893108236
-0,304034483529904
-0,303663335147576
-0,303102513531485
-0,30238802493659
-0,301464405729348
-0,300366395749734
-0,299012727613444
-0,297440417871258
-0,295532833199104
-0,293590447976385
-0,291677035855173
-0,289890441573334
-0,288211397468331
-0,28659257441268
-0,285160020898729
-0,283944829286156
-0,283007448272656
-0,282171711268347
-0,281595574933817
-0,281078449193046
-0,280656454140626
-0,280359776193109
-0,280184578130502
-0,280070852359131
-0,280054804354677
-0,280053117688112
-0,280035093683949
-0,280054312963614
-0,280226507654561
-0,280373357752296
-0,280528697153841
-0,280726350276836
-0,280935608960135
-0,281212434895224
-0,281643279730815
-0,282079122913274
-0,282613587744891
-0,283012174355463
-0,283480865808997
-0,284073252196322
-0,284846523706619
-0,285772429115241
-0,286615344419261
-0,287466559319
-0,288296622557027
-0,289071301816875
-0,289966128158994
-0,291037120141482
-0,292103643159862
-0,293048395027654
-0,293990726948323
-0,295137850436731
-0,296310311894558
-0,297538449480271
-0,298703780050346
-0,299599922142079
-0,300525471795481
-0,30168163102644
-0,303380875287985
-0,305750586885551
-0,308883123656415
-0,312573437859101
-0,316560482209752
-0,320943145849014
-0,325555679104582
-0,330356749127532
-0,335340370060294
-0,340679971686768
-0,346304110695201
-0,352316035172407
-0,358637481149344
-0,3651634369362
-0,371436353745594
-0,376758400963809
-0,380904921688852
-0,384099838580369
-0,386238713910643
-0,387402127300447
-0,387383493320158
-0,386135487575302
-0,383727641925361
-0,380037987017204
-0,374940659290587
-0,368403257301907
-0,360427061694281
-0,350782235125735
-0,33951519983566
-0,326945075545154
-0,313482081957773
-0,299389770785638
-0,284546019925983
-0,26912617922244
-0,253481195934
-0,238079139227011
-0,223184343437424
-0,208910111263322
-0,195067530247798
-0,181736202007414
-0,169141148630843
-0,157330689624359
-0,1465069746273
-0,136907689973214
-0,128624432697052
-0,121263872554209
-0,114816076424631
-0,109477568556031
-0,105024393117674
-0,101379262224327
-0,0981638444554847
-0,0955049472113387
-0,0932234868350861
-0,0914626166095331
-0,0900948318712835
-0,0889071961109948
-0,0880794380464067
-0,0874046117551188
-0,0869967513162919
-0,0866908232592323
-0,0865339385291009
-0,0863998399454431
-0,0861646039265906
-0,085854242914138
-0,085554463878907
-0,0852899654191788
-0,0851146981121929
-0,0850849746375388
-0,0850204069593019
-0,0848577099750401
-0,0845885309609002
-0,084294692266667
-0,0842689511528079
-0,0841806895000445
-0,0842419284213065
-0,0841841539022425
-0,0842719478755498
-0,0845308200032378
-0,0849265284682588
-0,0853979320593226
-0,0859788931329604
-0,0867020835175936
-0,0875954223959639
-0,0886563674346377
-0,0898519147848447
-0,091212412125742
-0,0926815467796587
-0,0942006249981659
-0,0957976133968259
-0,0975883389646697
-0,0995398263157767
-0,101710560493302
-0,10407238515927
-0,106597172434249
-0,109311821721349
-0,112179918834954
-0,115285799994126
-0,118599070079654
-0,122005073660148
-0,125475834653116
-0,129095765140846
-0,132859045267651
-0,136823216208541
-0,140926316167679
-0,145050203499522
-0,149374379242545
-0,153744287579684
-0,158154194026793
-0,162778856478326
-0,167553998482617
-0,172388463193784
-0,177223955262889
-0,182086458682534
-0,187086246185572
-0,192245749129142
-0,19750194801054
-0,20291019265278
-0,208285598506336
-0,213743304801028
-0,219128907492632
-0,224705176631687
-0,230259156714965
-0,235908405998998
-0,241413079058475
-0,246891905682787
-0,252249052275147
-0,257624157402461
-0,262922549532959
-0,268264092064783
-0,273528395118774
-0,278740309022396
-0,283801562183726
-0,288824827364806
-0,293834907521159
-0,298829706187462
-0,303659496034015
-0,308528372350338
-0,313186823172146
-0,31774510226569
-0,322080324822309
-0,326431752873759
-0,330650764257371
-0,334764457576966
-0,338825640348659
-0,342829740133311
-0,346568354905685
-0,350104968967571
-0,353383487808969
-0,356403958921874
-0,359427601275456
-0,362355849252708
-0,365155860210507
-0,367859314694215
-0,370347871832564
-0,372622693674202
-0,374622752857249
-0,376429843279766
-0,378098821445747
-0,37963071663944
-0,38111918060531
-0,382416421280141
-0,383578457262047
-0,384690587627119
-0,385692871172068
-0,386587518207307
-0,387258388711416
-0,387707655027043
-0,388203442251324
-0,388776031653833
-0,389369082089615
-0,389867710462568
-0,390096072678716
-0,389964947105909
-0,389560766419891
-0,38882464712151
-0,388002434759983
-0,386984923774435
-0,385725022202678
-0,384200108948789
-0,382532755786997
-0,380696675189938
-0,378877714544615
-0,376904308102894
-0,374928232213279
-0,3729476797389
-0,370930372520888
-0,368875703441518
-0,366907368388638
-0,364910019436138
-0,362734256559634
-0,360525912924004
-0,358312471344107
-0,356243346065639
-0,354293459054588
-0,352444922915311
-0,350795857478715
-0,349260375519862
-0,347960038508745
-0,346778592569308
-0,345726505854145
-0,344814284459233
-0,344020801406373
-0,343379966487419
-0,342919774777329
-0,342609688865195
-0,342538750178392
-0,342532456957542
-0,342416316917479
-0,342278209407596
-0,341995012459847
-0,341892420781733
-0,341791104060576
-0,341812955794921
-0,341842006697334
-0,341877056736848
-0,341824264434763
-0,341920273556752
-0,342135775181305
-0,342473159877045
-0,342666474894941
-0,342835242188812
-0,343034432087734
-0,343351876545057
-0,343819237064963
-0,34437796221755
-0,344996428386366
-0,345611350467152
-0,346188723817249
-0,346759057367308
-0,347239262366202
-0,347787674916617
-0,348168775402883
-0,348675387464027
-0,349355328766251
-0,350755584226135
-0,352939250147756
-0,355762268289254
-0,358878149920201
-0,362242943992896
-0,365606583571207
-0,368870242131379
-0,372353486156499
-0,376138095325587
-0,380153579655598
-0,384352900277008
-0,388896533444495
-0,393677935488086
-0,398420908455591
-0,403131959970779
-0,407402823537268
-0,411204726282449
-0,414285912669584
-0,416447083676758
-0,417455851129489
-0,417207407306705
-0,415787838666802
-0,413253647606325
-0,409722022410278
-0,405284195832792
-0,400004283046655
-0,393442327627781
-0,385489754851733
-0,376065719477992
-0,365264717593163
-0,353212546244322
-0,340105155819401
-0,326357537594959
-0,312177120356864
-0,297734804848005
-0,283280980546806
-0,268974623902977
-0,255100280799525
-0,241771680824968
-0,228862470964486
-0,216358838176347
-0,204454513006567
-0,193284835794202
-0,182868214738846
-0,173529281128594
-0,16541724904323
-0,158498810129004
-0,152526443583611
-0,147459104956397
-0,143318138462064
-0,140006775126039
-0,137332241582953
-0,135238822790143
-0,133694254837792
-0,132395625365461
-0,131460805665029
-0,130800303708838
-0,130172244019377
-0,129751896739435
-0,129502359148773
-0,129414818461555
-0,12927304164532
-0,129132663117616
-0,129050450897012
-0,128840481687803
-0,128674169453916
-0,128543578910467
-0,128535749849107
-0,128531492389811
-0,128468958587746
-0,12822408257307
-0,128055844624669
-0,128135336170999
-0,128309116029868
-0,128607806973832
-0,128732699090278
-0,12873884812052
-0,128888644668677
-0,129177307627003
-0,12966578848652
-0,130327197330018
-0,131133472681654
-0,131995601574772
-0,132913612468428
-0,133858224894084
-0,135040402228697
-0,13640158353337
-0,137882036309747
-0,139540378414949
-0,141221883265189
-0,143221859930236
-0,145391572429617
-0,147879965441462
-0,150298116071099
-0,152852367845298
-0,155565000339266
-0,158579043504687
-0,161715404202369
-0,164946210683411
-0,168209539094278
-0,171649666864141
-0,17517062754996
-0,178859337631366
-0,182714872201359
-0,186648464935388
-0,190718989840207
-0,194919616728839
-0,199213053958374
-0,203622980332511
-0,20808641426629
-0,212661105646475
-0,217104780542286
-0,221591120147423
-0,226052342839466
-0,230690210240937
-0,235530791716883
-0,240393993321049
-0,245039950665159
-0,249733795879365
-0,254468727298445
-0,259296532603912
-0,264332370004922
-0,26924497163418
-0,27403236427017
-0,27881207774044
-0,283489468958578
-0,288176086540261
-0,292838229441259
-0,297420049782886
-0,301804719772917
-0,306076812801621
-0,310286821664704
-0,31451690072754
-0,318639431518022
-0,32270846893698
-0,326690198104188
-0,330639854970286
-0,334430992632406
-0,338206697952046
-0,341785506188899
-0,34537739892221
-0,348893533897353
-0,352301267796065
-0,355447216306857
-0,358480362077898
-0,361226298171459
-0,363867983454838
-0,366344523321459
-0,368770734476129
-0,371140711677072
-0,373388788762895
-0,375541922028788
-0,377630639399285
-0,379502595344093
-0,381211626639924
-0,382783451639625
-0,384365701132992
-0,385837672210982
-0,387082233455658
-0,388044367116891
-0,388665426857187
-0,389007421881615
-0,389344477411214
-0,389682375314806
-0,389997636006228
-0,390294898305001
-0,390331404509197
-0,3902205815466
-0,389874379325192
-0,389388773772225
-0,388652311083206
-0,387970683104868
-0,387226464390551
-0,38635842837175
-0,385249130618831
-0,383761304132349
-0,381823300636825
-0,379775779492775
-0,377796254379064
-0,375934392813178
-0,374153230402044
-0,372303443020428
-0,370215931362509
-0,367905603162399
-0,36552541583842
-0,363129723116799
-0,360832649210352
-0,358631196437273
-0,356497877242873
-0,354408804133072
-0,352425597382535
-0,350669685653429
-0,348967292883117
-0,347533765125263
-0,346318543151938
-0,345240653651445
-0,344363229969872
-0,343599440990232
-0,343071085343013
-0,342662136823606
-0,342227307731264
-0,341766550638113
-0,34133837904119
-0,341059886366565
-0,340928663079467
-0,340795887834247
-0,340666322758807
-0,340511858946229
-0,340361757893334
-0,34024289053832
-0,340300478181234
-0,340418561008846
-0,340481188737613
-0,340635992157331
-0,340758677770282
-0,340965205337852
-0,341347025836512
-0,341816326310436
-0,342404853674452
-0,342845531075
-0,343138405958598
-0,34346039909542
-0,34354074820294
-0,343741552689607
-0,343949157902898
-0,344167059576648
-0,344690452940995
-0,345623401917692
-0,347299651348294
-0,349573829080327
-0,352336004816607
-0,355213999955595
-0,358200268143264
-0,361227549463365
-0,364639871886538
-0,368388740407681
-0,372696555097718
-0,37724919079119
-0,381999826799074
-0,386932236779103
-0,39188504899721
-0,396702910735257
-0,401176670537097
-0,405369072799658
-0,409341642918662
-0,413011828124581
-0,416366332383404
-0,419159873677927
-0,421388500017201
-0,422980012901462
-0,423940388744086
-0,423756074342236
-0,422090114727325
-0,419001364907672
-0,414590648328158
-0,408936252708372
-0,402268498281046
-0,394729531821213
-0,386393130291253
-0,377352589755901
-0,367576685035601
-0,357088971632038
-0,345936124092987
-0,334250106596301
-0,322407765979733
-0,310643042390439
-0,298987274883984
-0,287177769245318
-0,275334953363199
-0,263634272876516
-0,25221956880705
-0,241360289603108
-0,231005083916898
-0,220927040929382
-0,21146300649707
-0,2024390101069
-0,193864115908582
-0,186110924665627
-0,179171533319277
-0,173129736410374
-0,167917201150885
-0,163584191744121
-0,160272669986625
-0,157738169670665
-0,155942653509555
-0,154486079686649
-0,153348042190373
-0,1525584286087
-0,152026452034534
-0,151812565920409
-0,151711280508152
-0,151697588905336
-0,151830754043203
-0,152075016286744
-0,152425077540556
-0,152730361479826
-0,152929285765367
-0,152987091593786
-0,153017756115787
-0,153104719089697
-0,153302101851295
-0,153665206788446
-0,154012645072271
-0,154221560352653
-0,154344750623295
-0,154583778321694
-0,15487421522198
-0,155155185725334
-0,155606048590471
-0,156018268940556
-0,156449255124699
-0,156952815433897
-0,157644900182959
-0,15849622890255
-0,15941896018694
-0,160503363941643
-0,161688517128823
-0,162970886105541
-0,164555538497552
-0,166262076788371
-0,168094186416965
-0,170056752836899
-0,17214633725871
-0,174293787271381
-0,17664092332052
-0,179125764657329
-0,181839942477382
-0,18478369391778
-0,187802520080368
-0,191007912711939
-0,19430637181722
-0,197726328829958
-0,201295043631035
-0,204893354793967
-0,208583783803988
-0,212486250995426
-0,216449971327165
-0,220472990638882
-0,224583835228259
-0,228662210047332
-0,232824492288273
-0,236976086311188
-0,241232169275463
-0,245672694711175
-0,250466723973659
-0,255367410769395
-0,260157227177842
-0,264771009760807
-0,269299512247017
-0,273689391187872
-0,277887255659152
-0,282042297008957
-0,286236773910787
-0,29061153451039
-0,29497934164101
-0,299515152404638
-0,303975587712557
-0,308266080388421
-0,312588486955065
-0,316932509957041
-0,321379312501449
-0,325773404305437
-0,330143368606514
-0,334339677317985
-0,338448274618713
-0,342402692669566
-0,346284075560106
-0,35005878859738
-0,353878451616765
-0,357416558825207
-0,360702779624262
-0,363792444863066
-0,366621306562593
-0,369309133289789
-0,371978055663931
-0,374479470563529
-0,37698931687919
-0,379350657742179
-0,381707770549838
-0,384091372963667
-0,386386961326934
-0,38841907097958
-0,390305079954487
-0,391980654920189
-0,393530255380028
-0,394804011721135
-0,395805590427699
-0,39662528039662
-0,397260710002229
-0,397826639056802
-0,398320676991716
-0,398742823828798
-0,398944258200572
-0,399015202574446
-0,399015389444685
-0,398888591540526
-0,398733355534205
-0,398233425636136
-0,397488472704936
-0,396384747216871
-0,394985335102319
-0,393293475935934
-0,391462354777104
-0,389465816911979
-0,387306959595662
-0,384870491843685
-0,382426578275954
-0,379852718280745
-0,377206884641055
-0,374640863194145
-0,372160027919563
-0,36968073038679
-0,367211963612135
-0,364905608294066
-0,362580697734757
-0,360328208573264
-0,358000064127282
-0,355509129727125
-0,353064694409795
-0,350816295748245
-0,348736607455066
-0,346831221710659
-0,344778835987171
-0,342731501727911
-0,340776737803594
-0,339034953097325
-0,337783787465924
-0,337008132999927
-0,336244150499169
-0,335403998557922
-0,334448853475806
-0,333489865484808
-0,332702707907629
-0,332214045856745
-0,331978461696053
-0,331733669173445
-0,331537171474338
-0,331264779448247
-0,331002057775549
-0,33086623267809
-0,33079881910453
-0,330651090593165
-0,330540273320366
-0,330554303583995
-0,330631124734282
-0,330769650598086
-0,33088331565159
-0,330884344912192
-0,330893517231743
-0,330879199529591
-0,33087070075635
-0,330755632647197
-0,330600870969647
-0,330468500789721
-0,330559904297843
-0,331065805843537
-0,332233251883736
-0,334130186271068
-0,336555227735516
-0,339370517383941
-0,342322369178873
-0,345337665490661
-0,348821499552287
-0,35281576014313
-0,357266331629944
-0,361970457146526
-0,367085326022789
-0,37246946498999
-0,377957024717034
-0,383418693450949
-0,388734750051299
-0,393764545617159
-0,398396702272294
-0,402849117850565
-0,406807718405616
-0,410086209772999
-0,412652919925677
-0,414318832112258
-0,414912067544719
-0,414307118402576
-0,412347654977566
-0,409068175142238
-0,404517083838073
-0,398783611208273
-0,392072605809517
-0,384158323620795
-0,37501848978718
-0,36457067963056
-0,353294522290525
-0,341274335023627
-0,328621116266731
-0,315623795606371
-0,302512627698889
-0,289433550140529
-0,276268919238646
-0,262960852422111
-0,249899121568887
-0,237206412202795
-0,225248196235043
-0,213974179943762
-0,203272145947267
-0,192878854581068
-0,183009334143208
-0,173943316196528
-0,165611690072183
-0,158368728032656
-0,152062771336205
-0,146664358329872
-0,142288352171818
-0,138712234242121
-0,135827282794708
-0,133553046243833
-0,13163228508165
-0,130073807330518
-0,128819564341029
-0,127838454257471
-0,126918901836689
-0,126327457444859
-0,125948758884988
-0,12566983457782
-0,125488891597342
-0,125366484897313
-0,125203361018976
-0,125024503145141
-0,125009620999663
-0,124856689226363
-0,12470888955886
-0,124651966904821
-0,124560664899036
-0,124520652550927
-0,124410159721265
-0,124256180648445
-0,124172332048147
-0,124149099108763
-0,124211000174
-0,124326345263853
-0,124617018371282
-0,124877970847592
-0,125195815613552
-0,12559499512713
-0,126071842916758
-0,126833665384808
-0,127733965324524
-0,128684834927071
-0,129625256299505
-0,130732064838867
-0,132152824961395
-0,133827756743813
-0,135698318214054
-0,137618126005691
-0,13973486786017
-0,141982896557238
-0,144297764898511
-0,1468564790448
-0,149628681819195
-0,152465703647977
-0,155394605231777
-0,158529126521898
-0,161925656120729
-0,165461328177116
-0,169165698276629
-0,172950000089259
-0,176781666134048
-0,18074527925819
-0,185041410602935
-0,189426605204062
-0,193900070931704
-0,198341484290722
-0,202926964469953
-0,20752785419063
-0,212227659680138
-0,217026798296502
-0,22198547685548
-0,226860325765301
-0,23173488912289
-0,236630550050904
-0,241629652638949
-0,246638829692529
-0,251594004002982
-0,256401789403753
-0,261145682525239
-0,265967741030181
-0,270744060278957
-0,275499557061266
-0,28026271977069
-0,285005847377761
-0,289725766670017
-0,294505983882118
-0,299370263157471
-0,304224056202656
-0,309125226805918
-0,313892585305439
-0,318642575271952
-0,323428307812719
-0,327939537619386
-0,3321062253126
-0,336039938523754
-0,339738609232882
-0,343413485476049
-0,347009843397245
-0,350743712158874
-0,354590914877917
-0,358256578914734
-0,361680113186594
-0,364885168117326
-0,367953926510381
-0,370909972192749
-0,373776879736397
-0,376524405761302
-0,378942986131733
-0,38108778091555
-0,382982222312421
-0,384739945922775
-0,386359799194906
-0,387873481591669
-0,389104091336776
-0,390112560900889
-0,390867152877036
-0,391633744140563
-0,39217317694056
-0,392727990860294
-0,393183331278124
-0,393511022837629
-0,39383052105768
-0,393996509799763
-0,393925805419713
-0,39356684789891
-0,392660600027739
-0,391481044720422
-0,390030155109343
-0,388429378825094
-0,386713455714926
-0,384832808395004
-0,382764730396957
-0,380689116482245
-0,378455347625277
-0,376364021520203
-0,374330261232899
-0,372180157890398
-0,369859315052963
-0,367457357577223
-0,365118899607296
-0,362779982496249
-0,360529059528744
-0,358188631251323
-0,355731200624177
-0,353368323925679
-0,351161573992613
-0,349237113163326
-0,347455207971507
-0,345854293190769
-0,344382609564491
-0,343136076104656
-0,3420582757783
-0,341122128941606
-0,340243204523574
-0,339578543771722
-0,338775410286416
-0,338161822917755
-0,337645073780095
-0,337282495332147
-0,336953337181512
-0,336749021818832
-0,336586451000585
-0,336288703943865
-0,336063143971842
-0,335937832549462
-0,335940850154657
-0,336075777855513
-0,336107143415575
-0,336182577653744
-0,336297308986104
-0,336538007202762
-0,336937552896416
-0,337350743709976
-0,337570216299355
-0,337776444132032
-0,337820548855234
-0,337970788434177
-0,338406379280059
-0,339034670421825
-0,340314805409434
-0,342451568092656
-0,345463563196972
-0,349137750672526
-0,353274423643597
-0,35762142823296
-0,362107216704317
-0,367130156515486
-0,372663297046529
-0,378560364970326
-0,384887440122839
-0,391476491298818
-0,39789961068891
-0,404064204174574
-0,40979218893699
-0,415119979155861
-0,419883674027005
-0,423840922807358
-0,426875869086871
-0,428932189726766
-0,430280247663177
-0,431219506008347
-0,431454000206941
-0,43086924934687
-0,428960222765454
-0,425604613348696
-0,420877526164986
-0,414785506822227
-0,407365125924116
-0,398924451787025
-0,389799300850427
-0,380348580532882
-0,370382416280336
-0,359820760793809
-0,348754335536796
-0,337244401183852
-0,32502750569256
-0,31234624148783
-0,299355198891135
-0,286272233817726
-0,273378544530715
-0,260723485422204
-0,24824174612877
-0,235810721635062
-0,223818888975075
-0,212365577492164
-0,201586758379563
-0,191347896699881
-0,181633007046912
-0,172391051077284
-0,163871204124007
-0,156181200243736
-0,149467863109749
-0,143736641608484
-0,138693245493414
-0,134485314118137
-0,131197382026585
-0,128826369862509
-0,126976770274268
-0,125515608893693
-0,124425946869451
-0,123565408828654
-0,122905217078369
-0,122503273261827
-0,122361299130716
-0,122426027111942
-0,122610137577794
-0,122880100148905
-0,123080424626096
-0,123292236074121
-0,123447771837164
-0,123780426654776
-0,124017332251242
-0,124242967166538
-0,124719873761023
-0,125172688922248
-0,12574557618791
-0,12637885051754
-0,126921356895764
-0,127514764021726
-0,128120210231828
-0,128848817307244
-0,129757889245411
-0,130729009290576
-0,1317304210462
-0,132906079384156
-0,134280417263653
-0,135758355219878
-0,13739840675953
-0,139263866488363
-0,14126328346174
-0,143389514480077
-0,145725676778966
-0,148328016597588
-0,151017326983492
-0,153942543105586
-0,156953795391019
-0,160139105502822
-0,163523181448909
-0,167131959853577
-0,170963325152115
-0,174987110021902
-0,179051262952271
-0,183150172808382
-0,187398950332863
-0,191882254330267
-0,196625029984716
-0,201508220223332
-0,20626634661312
-0,211196335658315
-0,216262247558916
-0,22142698029711
-0,226775372928387
-0,232187282097584
-0,237752365948836
-0,243318857563281
-0,248881430354231
-0,254493328204262
-0,260208995012363
-0,265998604816559
-0,271711619185226
-0,277461081015645
-0,283358851876983
-0,289248469285667
-0,295066102626151
-0,30087220526184
-0,306635789354914
-0,312262515253678
-0,317836126327165
-0,32332081549248
-0,328745289327344
-0,334080855485809
-0,339210932856076
-0,344166523653257
-0,34885070798191
-0,353497013435117
-0,35813274737302
-0,362786417092138
-0,36730604708282
-0,371743472358503
-0,376005259473459
-0,380269880100968
-0,384268142042856
-0,388150370123185
-0,391886368568521
-0,395442341396119
-0,398813744573999
-0,40199956784636
-0,405001144103153
-0,407881919669308
-0,410554110083467
-0,413073952149716
-0,415526944128942
-0,417937623355101
-0,420243857217429
-0,422330876528576
-0,424083864560089
-0,425446499179088
-0,426508803611796
-0,427271664833825
-0,42765159566261
-0,427688117037178
-0,427360884601512
-0,426789946786812
-0,426149103341231
-0,425408305400197
-0,424598446103118
-0,423782080164528
-0,422755781039086
-0,421851618264554
-0,420918783103843
-0,419924817170795
-0,418989655003315
-0,418025848903198
-0,416915470664208
-0,415776064291549
-0,414514191446415
-0,41315592623414
-0,411819955765395
-0,410449246400049
-0,409017244989116
-0,407553587734895
-0,406084339246149
-0,40469534405679
-0,403295554387796
-0,402006104821567
-0,400739576101387
-0,399496437789367
-0,398095486041711
-0,396745772752638
-0,395300136654896
-0,393909059223006
-0,392482778060639
-0,39101940065666
-0,389668246386464
-0,388492002744897
-0,387555804686599
-0,386930825193303
-0,38632971898187
-0,385908071129961
-0,385666740155102
-0,385577351535176
-0,385765171137791
-0,386056698011089
-0,386305368554531
-0,386690361274304
-0,387002980032776
-0,387393122889989
-0,387952126942764
-0,388684697392819
-0,389208864859029
-0,389675755799544
-0,390170745227806
-0,390778017554112
-0,391729425966332
-0,393310745810595
-0,395558155069011
-0,398558296015835
-0,402160175935933
-0,406250643900421
-0,41063363102694
-0,415003184589295
-0,419385103534296
-0,424034791851227
-0,429110392109578
-0,434592115869236
-0,440285815184325
-0,446212028893569
-0,451798495821095
-0,456986323012643
-0,461661552287296
-0,465951593412683
-0,4698068690127
-0,473214158942028
-0,475869639216853
-0,477858399257457
-0,479141054720458
-0,479767091933354
-0,47987725843268
-0,479407129812898
-0,478028501278459
-0,475684826786164
-0,472527848538448
-0,468737133032846
-0,464313898290129
-0,459470107583911
-0,454293240931293
-0,449101364902162
-0,443962683530117
-0,438846768294752
-0,433748852512508
-0,428142372278671
-0,421754631177464
-0,414484806722612
-0,406712307943963
-0,398673485527979
-0,390550777563476
-0,382261793405632
-0,373359519653604
-0,363866592873819
-0,353805487655336
-0,343023987719789
-0,33167331059667
-0,320093386122608
-0,308392196217028
-0,296858252986567
-0,285425140798907
-0,274304444254085
-0,263690534346097
-0,25366918346117
-0,244299501842761
-0,235576323240821
-0,227309463974962
-0,219730885528406
-0,212900627631825
-0,207153310670037
-0,202322405226369
-0,198386925660088
-0,195377588655901
-0,193442536357907
-0,192253241426442
-0,19171568595084
-0,191398337311512
-0,191517623018626
-0,191925471123795
-0,192440976612488
-0,193062517303133
-0,193883455658579
-0,19478617176037
-0,195797076478357
-0,196878019618907
-0,197955570456998
-0,198870752531548
-0,199768099377707
-0,200733507709401
-0,201700443334403
-0,202780445438748
-0,20390692290627
-0,205160896486518
-0,206387876749886
-0,207552867718277
-0,208736785791643
-0,209959557924776
-0,211273953656018
-0,212765604090237
-0,214463969907229
-0,216248528418873
-0,218113535638622
-0,220171597986337
-0,222447489901242
-0,224911024954054
-0,227591825178024
-0,230340248581342
-0,233185964651057
-0,236212469983002
-0,239443528789707
-0,242907714811736
-0,246514117807237
-0,250171856012457
-0,254029129453556
-0,258022012618312
-0,262206149440317
-0,266428629973234
-0,270837777505221
-0,275285491661634
-0,279767740783427
-0,284368362983514
-0,289054065149685
-0,293942784963292
-0,298915816354565
-0,303853281504416
-0,308841504287557
-0,313815605688433
-0,318920489262382
-0,324094876246818
-0,32927988791198
-0,334442363855487
-0,339488173282007
-0,344591519133246
-0,349836372355639
-0,354983371435083
-0,360120077864849
-0,36512188018969
-0,370014150714269
-0,374879622424487
-0,379774119362992
-0,384311754365626
-0,388737101704464
-0,392845833674073
-0,396875258120417
-0,400848109988146
-0,404787114675855
-0,408716188125254
-0,412542095960816
-0,416175156467943
-0,419762341116439
-0,423088427207404
-0,42620768785855
-0,429266980776447
-0,432271475994639
-0,434986071220919
-0,43752706774103
-0,439918097010377
-0,442124181961844
-0,444233420155797
-0,446126488852315
-0,447863329296524
-0,449472183187027
-0,450801961906109
-0,451882012399437
-0,452657326328335
-0,453136161489965
-0,453263357838296
-0,452980088793993
-0,452465305210353
-0,451722161315047
-0,450817096389073
-0,449723879853991
-0,448445523579721
-0,447042381458232
-0,445600497188934
-0,444148525184573
-0,442687029863009
-0,441309217151684
-0,439870439667175
-0,438371299789651
-0,436840489845054
-0,435244550631069
-0,433551204012929
-0,43175982388766
-0,429778323725486
-0,427845092794087
-0,425897315542727
-0,424052687767983
-0,422164152571213
-0,420204193939753
-0,418144095840944
-0,416044183665463
-0,413995263292236
-0,412116268485534
-0,410317598125857
-0,408365620332916
-0,406500066684202
-0,404537551492012
-0,402415401487815
-0,400369757690896
-0,398432959903857
-0,396553097100423
-0,394829498616673
-0,393295827590464
-0,391954142564373
-0,390901581540675
-0,390207277942864
-0,389791648201935
-0,389363021267854
-0,388981196028908
-0,388764560781055
-0,388593660018159
-0,388500259632565
-0,388491616653482
-0,388306635348272
-0,388096594047965
-0,38797989052
-0,388012790017456
-0,388631174613693
-0,390022500572741
-0,392069665991585
-0,394686267525685
-0,397643222988336
-0,400690626689538
-0,403795564900065
-0,407221642495642
-0,411042570984137
-0,415265309537972
-0,419776256650039
-0,424585065614338
-0,429497702318258
-0,434356660693538
-0,43889327494071
-0,443202226097696
-0,447287934789074
-0,451243872551913
-0,454690128480706
-0,457523392787152
-0,459586395597853
-0,461049810001441
-0,462077014102874
-0,462561719406665
-0,462610858530525
-0,462068831201123
-0,460696758653285
-0,458404336823151
-0,455224080082189
-0,451424909428169
-0,446915714423085
-0,441877071916679
-0,436450535718905
-0,430949657165911
-0,425501457139035
-0,420107424877642
-0,41474091240525
-0,409737418616714
-0,404892184116761
-0,400290958576079
-0,395747567265062
-0,391221056939685
-0,386449919998995
-0,381193482142407
-0,375323276603012
-0,368978990401956
-0,36233420134522
-0,35536093437986
-0,348343067496899
-0,341062977851834
-0,333383703022264
-0,325214850774501
-0,316553775308421
-0,307492730033118
-0,297981014606194
-0,288306699847453
-0,278588079178007
-0,268976355066116
-0,259355643705931
-0,249879680290178
-0,240616815521207
-0,231795069339569
-0,22325950069353
-0,21517987194602
-0,207544433407747
-0,200341606076108
-0,193681894168549
-0,187862446113286
-0,182859686543452
-0,178768646534991
-0,175499368301644
-0,173170732465223
-0,17163351356362
-0,17073631375365
-0,170290263297147
-0,170184923429474
-0,170363720600506
-0,170768919179338
-0,171341602492269
-0,172083805356067
-0,173025652520067
-0,174044866298118
-0,175163199765166
-0,176309745541175
-0,177475700324067
-0,178626495022172
-0,179698213673873
-0,180831894107541
-0,182139255733546
-0,183584387162227
-0,185072797061366
-0,186540446164145
-0,187859905692676
-0,189200132666883
-0,190640995248032
-0,192263552124132
-0,194004821722046
-0,195863983481104
-0,19765972447567
-0,19959740638842
-0,20178977791511
-0,204230103743612
-0,206705485339626
-0,2094847497101
-0,212329346377373
-0,215296005397249
-0,21831717281384
-0,221538658042846
-0,224958677645191
-0,228548586790566
-0,232129757154325
-0,235845730876463
-0,239720537865651
-0,243780626929947
-0,247996295278426
-0,252308588474989
-0,256657380239631
-0,261068033258198
-0,265443997617695
-0,270081379370822
-0,27480057766661
-0,279542742420745
-0,284218542728922
-0,289032709566527
-0,293859488439921
-0,298721955827205
-0,303617479243258
-0,308576297225954
-0,313446974956605
-0,318314749929414
-0,323233188464656
-0,328136335076124
-0,333049675660732
-0,337793676000729
-0,342398546148615
-0,346889696309518
-0,351319416840852
-0,355595919994812
-0,359660241818347
-0,363545993131993
-0,36728792807844
-0,370881948620081
-0,374409407457279
-0,377922357809439
-0,38135451238486
-0,384674816508777
-0,387822907032387
-0,390765291478601
-0,393440330677549
-0,396113270493515
-0,398630982839677
-0,401053674606374
-0,403202461224282
-0,405136283174215
-0,406854262910201
-0,408443345397245
-0,409930686164444
-0,411316522440757
-0,412481540945009
-0,413601661603025
-0,414463710800192
-0,41515688176878
-0,415478630176949
-0,415437299281621
-0,415130197769031
-0,414443585679692
-0,413496747722093
-0,412471053859917
-0,411161142317724
-0,409572557877254
-0,407830310237841
-0,405961977103289
-0,404081787020914
-0,402283021807307
-0,400573512406481
-0,398872067316915
-0,397064642987971
-0,395148374532255
-0,393177758034653
-0,391058449176853
-0,388937528610313
-0,386904697034424
-0,384720360423671
-0,382474219506094
-0,380285255472245
-0,378090785578905
-0,37598172954182
-0,373873305294183
-0,371708839674284
-0,369515948305434
-0,367380826711724
-0,365242058578588
-0,363189448975845
-0,361017560315304
-0,358760008304216
-0,356656609903439
-0,354589806877812
-0,352833544152418
-0,35121656902993
-0,349836047967074
-0,348667301363093
-0,347595465084851
-0,346774075182111
-0,346177432280456
-0,345689652458532
-0,345346092162799
-0,345001643969226
-0,344656450139155
-0,344427803325743
-0,344341583137066
-0,344218677450044
-0,344094509113347
-0,343855660728877
-0,343566788098542
-0,343229176673049
-0,342905044388317
-0,342744469475292
-0,342862325578608
-0,343426189505408
-0,344766414549667
-0,346759965184901
-0,349263067673746
-0,35199401252612
-0,354799059794459
-0,357792888553377
-0,361317439826962
-0,365255265347514
-0,369726978937251
-0,374742205465736
-0,379894785284705
-0,385168956961934
-0,390467146096853
-0,395633274292777
-0,400634404114498
-0,405474050248813
-0,409893327288046
-0,413635664480353
-0,416628412763203
-0,418864465924344
-0,420453687872396
-0,42153269011942
-0,421974351253084
-0,421508500940035
-0,420311195775867
-0,418319192333001
-0,415476143840351
-0,411821631882049
-0,407518075629923
-0,402631453238428
-0,397364440832462
-0,391906448079681
-0,385922649569693
-0,379127057523874
-0,371645820996491
-0,363514581913478
-0,355071169018629
-0,346539699399727
-0,338001364609227
-0,329145852709189
-0,319861815471086
-0,310031809422071
-0,299922561142012
-0,289500679049524
-0,278858188801678
-0,268007542137639
-0,257152378966566
-0,246320637568715
-0,235566021903651
-0,224820380339224
-0,214468053680321
-0,204485875656246
-0,195039676451415
-0,185967352976149
-0,177218160955817
-0,168889129381569
-0,160990769039927
-0,153659245603194
-0,147041638647352
-0,141199776346184
-0,136317655225866
-0,132156410774769
-0,128953169654778
-0,126529321543785
-0,124700512198615
-0,123216806550772
-0,122028594041694
-0,121109639258066
-0,120613046639846
-0,120302893381449
-0,120182338407176
-0,120043558314137
-0,120125155832284
-0,120392609274859
-0,120689475057588
-0,121011664569778
-0,121236691416016
-0,12139081467194
-0,12158332526451
-0,121892995667622
-0,122285000678858
-0,122759738707828
-0,123227338283414
-0,123591927830148
-0,124023550546553
-0,124482438834818
-0,124964039265706
-0,125556401942049
-0,126198746130285
-0,126859562075879
-0,127744012279436
-0,128756063875699
-0,129891135005892
-0,131178705329148
-0,132681135055464
-0,134220550036844
-0,13594362773074
-0,137904442017316
-0,140068053875439
-0,142371462756273
-0,144874799541867
-0,147400341928005
-0,150124209059868
-0,152981095256109
-0,156086215607502
-0,159408392406476
-0,162917685884167
-0,166375592889381
-0,169990064958256
-0,173815488989931
-0,177817239044089
-0,181964298593812
-0,186195199181384
-0,19047896223492
-0,19481151823129
-0,199215706285031
-0,203833916144504
-0,208485214294342
-0,213261801050976
-0,217982771442621
-0,222821052542713
-0,227678846873459
-0,232582660384651
-0,237532099243253
-0,242556069293641
-0,247561573218263
-0,25251299377851
-0,257490663963836
-0,262546826837934
-0,267588494512893
-0,272675081803754
-0,277714810559701
-0,282609940244583
-0,287351753046096
-0,292085086017323
-0,296716894430574
-0,301304136264662
-0,305667068379989
-0,309862591588171
-0,313888988996041
-0,317684735120565
-0,321487099776277
-0,325175939848123
-0,328717772317759
-0,332164574661874
-0,3354792544269
-0,338600172370207
-0,341646153101465
-0,344527420071245
-0,347095588302182
-0,349587728407641
-0,351997067213233
-0,354258251485589
-0,356343532934261
-0,35828728612978
-0,35991050323355
-0,361359861752135
-0,362601508808439
-0,363723475536972
-0,364695433207089
-0,365576094569406
-0,366098411184794
-0,366411261395115
-0,36645250319998
-0,366223279630503
-0,365731820085784
-0,364989868568955
-0,363944579738018
-0,36254065121102
-0,361023918972933
-0,359314438966976
-0,35763226249037
-0,35589622648331
-0,354019205795339
-0,351999526068539
-0,349862383871368
-0,347574367498964
-0,345286100691737
-0,342939615396972
-0,340507414592139
-0,338201064021632
-0,335749251192283
-0,333328308742239
-0,330908368046039
-0,328492431528502
-0,326026121711948
-0,323690561810508
-0,321334018177367
-0,31898406848336
-0,316669490425511
-0,314361691288696
-0,311852776521842
-0,309353187753914
-0,306983125170291
-0,30498475833474
-0,303186749170891
-0,301569037916124
-0,300111621713768
-0,298789783016218
-0,297605751109586
-0,296652044144139
-0,295935757903862
-0,295285933763807
-0,294703790683343
-0,294126024602519
-0,293789364670374
-0,293454823971842
-0,293246790941339
-0,293051791148173
-0,292989469828171
-0,29293684734148
-0,293011206802476
-0,293004098683014
-0,292918017919874
-0,292699222656665
-0,292417026525072
-0,29204569220019
-0,291820663460385
-0,292030039800011
-0,292953710217262
-0,294656037498498
-0,296988267742563
-0,299715176195605
-0,302757654586458
-0,305952419683308
-0,309558228833339
-0,31368040765301
-0,318235645474488
-0,323376321859541
-0,32883785116428
-0,334718003083253
-0,340759695645829
-0,346770502643267
-0,352567588601232
-0,358120529932421
-0,363280552721335
-0,367995039225207
-0,372012228245694
-0,375121402102195
-0,377324978860997
-0,378797307546847
-0,379584672884448
-0,379768421908011
-0,379172083507001
-0,377658963647264
-0,375274966616416
-0,371943790141813
-0,368062210865901
-0,363362178686657
-0,357957299820555
-0,351885658048559
-0,344775729216053
-0,336962140499963
-0,328573033024441
-0,319983745182981
-0,311394971620757
-0,302647564865765
-0,293273925577523
-0,28324677576893
-0,272741267894162
-0,261840961276903
-0,250634063559119
-0,23912559870223
-0,227446017626789
-0,215667172742542
-0,203864497263567
-0,192058454165817
-0,180456008267356
-0,169093260774389
-0,158251470544201
-0,148004694419797
-0,138304104410054
-0,128979159329901
-0,12025333497877
-0,112211018815287
-0,104759905141691
-0,0981043586107262
-0,0924818616949779
-0,0878666096832603
-0,0842366730103095
-0,0813289439720393
-0,0789929021593707
-0,077123644099629
-0,0755787374837382
-0,0745158401805384
-0,0736731212164159
-0,0730583215135994
-0,0726744292005606
-0,0724306194479141
-0,0724153597602708
-0,0725682962820429
-0,0728290656752506
-0,0731372761383682
-0,0732800860241696
-0,0734557896921615
-0,0736528423421987
-0,0739253747524344
-0,0743322514645115
-0,0747823060955852
-0,0752112432219292
-0,0757304502722036
-0,0762098328059437
-0,0767326029026663
-0,0773562258477796
-0,0780490970087158
-0,0787186318304975
-0,0794491285773802
-0,0802931955208805
-0,0813046314665371
-0,0824529559240546
-0,0837100789631222
-0,0850772005996987
-0,0866410096514301
-0,0883955913923273
-0,0903960205578187
-0,0925509695025539
-0,0949520125068375
-0,0974212090259243
-0,100046599622146
-0,102822421446035
-0,105861280819227
-0,109041521413019
-0,112365808901814
-0,115775866965123
-0,119266046447592
-0,123007628510095
-0,126965731062228
-0,131139571443782
-0,135471025052539
-0,139689822986838
-0,144029521215998
-0,148513902837294
-0,153230121512024
-0,15805797711073
-0,16305540916801
-0,168038932308264
-0,173062933667097
-0,178243951537297
-0,183548541099299
-0,188973766256822
-0,194459330094105
-0,199882793640427
-0,205326719151344
-0,210873668904242
-0,216459783892788
-0,222054076133645
-0,227745098360174
-0,233321389285265
-0,238836249722226
-0,24448703006783
-0,250056306853367
-0,255631442414597
-0,261094778812549
-0,266416499769548
-0,271709628817916
-0,276906688108284
-0,282060911900771
-0,287166954716668
-0,292166843733867
-0,296886617928976
-0,301384178914304
-0,305773570267775
-0,310080946714152
-0,314244583678374
-0,318266069953097
-0,32217387505807
-0,326020977248845
-0,329678662339575
-0,333321792561037
-0,336801869096234
-0,3401789660129
-0,34321310496307
-0,346080234463443
-0,348984373929852
-0,351713568576088
-0,354209428267495
-0,356502575836203
-0,358505245661945
-0,360186995210825
-0,361780915729469
-0,363222436659271
-0,364482211101858
-0,365501573811343
-0,366338971900404
-0,367110213323031
-0,367781094275415
-0,368230731473886
-0,368314866631408
-0,368104900226172
-0,367640495667729
-0,367018648572412
-0,366304655144631
-0,365294239938521
-0,36405380427459
-0,362559441713529
-0,360754317833198
-0,358788923531392
-0,35690277224785
-0,354915831674589
-0,352889513405898
-0,350859510652299
-0,348679833723509
-0,346318043217252
-0,343979543504247
-0,341753788688948
-0,33949477009628
-0,337236980929447
-0,33492348240361
-0,332642585520716
-0,330421659236436
-0,328140460676877
-0,325799468917239
-0,323582036442303
-0,321283650578096
-0,319056021260849
-0,317049696353479
-0,31532862028007
-0,313723703215601
-0,312274494575831
-0,31099011070819
-0,309907814808867
-0,309210186247583
-0,30872010504936
-0,308321469114162
-0,307959156263678
-0,307636624313091
-0,307412339301663
-0,307285015842353
-0,30725576857003
-0,307265960633231
-0,30732029734645
-0,307390622245293
-0,30762212825357
-0,307891674365237
-0,308227331606759
-0,308659561473178
-0,309250515405438
-0,309761149648693
-0,310250044087297
-0,310834339630674
-0,311479984105972
-0,312068636696495
-0,312725771946134
-0,313337792176753
-0,31378869018954
-0,314226001828501
-0,314706993260188
-0,315321792011673
-0,316246042995772
-0,317615471692989
-0,319821212273382
-0,322797457200068
-0,326511516592291
-0,330789269202796
-0,335312733608589
-0,339889535585826
-0,344595730122819
-0,349828456099203
-0,355594776941871
-0,361843404083629
-0,368284185038647
-0,374985723094142
-0,381926531663339
-0,388943597965408
-0,39582734826763
-0,402498512066813
-0,4089435609676
-0,414939184171089
-0,420113173669961
-0,424061460740631
-0,426376082406932
-0,427002481032105
-0,426089463762764
-0,423788982370752
-0,420229271971039
-0,415601568187412
-0,409534360282123
-0,401659301169275
-0,391993044031551
-0,380575048220635
-0,367709051410202
-0,353487381929881
-0,33815080072236
-0,322060477505147
-0,305638334284595
-0,28882805363537
-0,272049005681765
-0,255451036413433
-0,239370531497116
-0,223918080650037
-0,209151864328305
-0,194914546231303
-0,18136638827491
-0,168753359281254
-0,157209324490395
-0,146881576943997
-0,137832290991355
-0,130005669936509
-0,123311025578005
-0,117742280996026
-0,113204602381302
-0,109443875968282
-0,106290466464998
-0,103600580259808
-0,101434338797844
-0,099642166558624
-0,0981612148207205
-0,0968407933942217
-0,0957435565142077
-0,0949309680363513
-0,0940999352860672
-0,0933316308291978
-0,092615738260065
-0,0919454653885623
-0,0912284837868356
-0,090518838915159
-0,0897509784044814
-0,0891862256758031
-0,0886968104023254
-0,0882218475380796
-0,0877613655429741
-0,0872227134568675
-0,0866010342651862
-0,086157385732804
-0,0857368231336295
-0,0855172679985117
-0,0853801897465019
-0,085237519328075
-0,0851756894298887
-0,0853970830157778
-0,0857502700146142
-0,0862702748490847
-0,0869640320379403
-0,0876251221470739
-0,088521660753031
-0,0896193681219302
-0,0909449444416168
-0,0924713005665581
-0,0941385047910899
-0,0959744952748309
-0,097918159260189
-0,100232945073003
-0,102705403920481
-0,105425710848976
-0,108365728484387
-0,111374235430048
-0,114476921591631
-0,117820198811387
-0,121371205501418
-0,125156879035785
-0,129085844368092
-0,13306554533483
-0,137180337187601
-0,14154506502382
-0,146095310192322
-0,150886223185807
-0,15582536184229
-0,160821493322146
-0,165899344658101
-0,171081261869404
-0,176539621767006
-0,182150396434736
-0,187852928440407
-0,193612288283475
-0,199389974732185
-0,205207247563521
-0,21111703763745
-0,217056325403973
-0,223024242804968
-0,228930861609115
-0,234859583521029
-0,240769507268851
-0,246772124752169
-0,252834887345671
-0,258838586240017
-0,264809252825216
-0,270824345752771
-0,276723451366706
-0,282561872023507
-0,288396091214963
-0,294225212521269
-0,299956907350861
-0,305730767060595
-0,311418039331329
-0,317102135704772
-0,322657884971704
-0,327964859352505
-0,33320142631419
-0,338332589839411
-0,343351443880238
-0,348222973552765
-0,352975486901414
-0,357461542829697
-0,361623894343211
-0,365638347531785
-0,369470897654537
-0,373210624245985
-0,376795394622604
-0,380342368691345
-0,383669872993778
-0,386768364303862
-0,389778282798943
-0,392637429584283
-0,395407899217389
-0,397974865525612
-0,400249192243791
-0,402406486166001
-0,404352792080317
-0,40605627768673
-0,407728916645283
-0,40934839140391
-0,410742382075114
-0,412031430445495
-0,413212965504499
-0,414345377655991
-0,415518746885937
-0,416405998403206
-0,41692027253157
-0,417269905039575
-0,417365550827526
-0,417331181000918
-0,416994285711553
-0,416455423095613
-0,415605321002658
-0,414417739215423
-0,413074953845353
-0,411585853355064
-0,409988587955013
-0,408381059292878
-0,406681867221778
-0,404862219802453
-0,403067845742044
-0,401328523701523
-0,399587381180027
-0,397758265418815
-0,395752623531735
-0,393717365375778
-0,39177011083666
-0,390035660922877
-0,388583884352556
-0,387244472236489
-0,385937404684228
-0,38472793049732
-0,383769196709181
-0,383037496165343
-0,382509187958931
-0,382072818303641
-0,381706012731229
-0,381379263159033
-0,381179030716339
-0,381017255796905
-0,381046151124792
-0,381148414580309
-0,381355584378525
-0,381546815267939
-0,381867233675621
-0,382314354197661
-0,382801421590557
-0,383361221558516
-0,383932726657804
-0,38448299949232
-0,385188875465246
-0,38587217685199
-0,386654749687295
-0,387479147670092
-0,388318405053724
-0,389110303927737
-0,389998818063759
-0,391159611317562
-0,392353601942887
-0,393584361547255
-0,394735920868698
-0,395805860825931
-0,396936983714113
-0,398156132105214
-0,399405869044131
-0,400572559039574
-0,40157062788785
-0,40269758530485
-0,404007125995122
-0,405551801100955
-0,407533059391426
-0,410024607554078
-0,41320556816936
-0,417012638092274
-0,421328914584592
-0,426101026518154
-0,430925494627445
-0,435767042799853
-0,440740463978727
-0,445980402379064
-0,451612110511633
-0,457675532437861
-0,464037452693447
-0,470598869302194
-0,477325445608585
-0,484002466211678
-0,490448134631151
-0,496487797077862
-0,501915072178235
-0,506456541566877
-0,509677841808298
-0,511349297768902
-0,511516341393872
-0,510232349333819
-0,507767263210553
-0,504366212444438
-0,499797144540935
-0,493907258736726
-0,486538659861253
-0,477686666548834
-0,467205720618949
-0,45498865153786
-0,4411352342795
-0,426103430378134
-0,410148258793924
-0,393590243031213
-0,376453312426747
-0,359000354583259
-0,341614941236912
-0,324651420512964
-0,308405731342646
-0,29278734674881
-0,277791446726042
-0,263412229473033
-0,249705053316575
-0,236751203676249
-0,224902946438306
-0,214401672319582
-0,205280569229217
-0,197390340525089
-0,190578459536482
-0,184807462839672
-0,180093970524467
-0,176151253835997
-0,172690373819933
-0,169837288784038
-0,167293725244235
-0,165171487969928
-0,163340975832398
-0,161887160640617
-0,160720512416447
-0,159751520146528
-0,158854230237921
-0,157866208413907
-0,156923777816701
-0,156165595235507
-0,155286205994344
-0,154433696239721
-0,153456061951147
-0,152526965342986
-0,151699299301981
-0,150845435826341
-0,150021763522091
-0,149167473180569
-0,148191218137072
-0,147416388066631
-0,146773716602183
-0,146231561211607
-0,145882572836854
-0,14554866870094
-0,145292000253903
-0,145201608915158
-0,145154372750767
-0,145416244451553
-0,145867702110991
-0,146420913803922
-0,147108769553597
-0,147781276437399
-0,148642254639412
-0,149810054510226
-0,15107851275252
-0,152570789272431
-0,154258860558002
-0,15601970895932
-0,157969379682982
-0,160164166427421
-0,162512760522077
-0,165078646317852
-0,167683873774877
-0,170411692923153
-0,173433223641041
-0,176716994130402
-0,180292540975643
-0,183983237497159
-0,187761287827016
-0,191708903243125
-0,195876642974326
-0,200260095865815
-0,204795118319453
-0,20953593599188
-0,214359882236749
-0,219052849057334
-0,223877634856763
-0,228947035826423
-0,234105533207185
-0,239320730346662
-0,244649290834786
-0,250055265431001
-0,25550152365031
-0,260952125630865
-0,266550433399971
-0,272201955573109
-0,27778411097097
-0,283380510067218
-0,288894261531823
-0,29443704681762
-0,299971726053627
-0,305437822018575
-0,310833418559923
-0,316211588702572
-0,321502293139929
-0,326785494857177
-0,331998288165778
-0,337048467918066
-0,341962141479598
-0,346734907187056
-0,351508784639009
-0,356306271714857
-0,361064405675279
-0,365812865544285
-0,370281306379184
-0,374614138432662
-0,378863120902679
-0,383051913624513
-0,387150368071161
-0,390980695578037
-0,394332188916451
-0,397531951384735
-0,400667985777545
-0,403706382210657
-0,406644901908294
-0,409422726312187
-0,411797325257794
-0,414092107246688
-0,416269486631791
-0,418352838496503
-0,420373881497653
-0,422127652134805
-0,423673939942091
-0,425039644331264
-0,426252836281492
-0,427314668275358
-0,428320106046158
-0,429218874807702
-0,429954747516604
-0,430616736921365
-0,431116935287719
-0,431661505812372
-0,432007785871974
-0,432099538491457
-0,431762129090203
-0,431206350382126
-0,430375775911671
-0,429426094873634
-0,428305576759158
-0,426994133158587
-0,425261846110516
-0,423413046242786
-0,421510582280462
-0,419498952658614
-0,417531237995718
-0,415523846786527
-0,413450576968899
-0,411280454674852
-0,409071547575877
-0,406731901894091
-0,404354799531575
-0,402127344721521
-0,399754963706073
-0,397451688513684
-0,395280368175008
-0,393275799207913
-0,39150688736845
-0,389981653490395
-0,388558172700868
-0,387331249326962
-0,386365264228516
-0,385574652700598
-0,384904377922794
-0,384272522760511
-0,383654559373099
-0,382990707783392
-0,382487150315683
-0,38214031536063
-0,381891660942529
-0,38171552563
-0,381465526053034
-0,381318620937236
-0,381271286099945
-0,38126262698097
-0,381381770383086
-0,381573802866114
-0,381811919858592
-0,382181714561739
-0,382530917308031
-0,382977992281667
-0,383524262855644
-0,384144162388111
-0,384748791846505
-0,385335912331357
-0,38614234807028
-0,386956106223806
-0,387748067638313
-0,38846218528488
-0,38907285463938
-0,389581332608941
-0,390075508112204
-0,390763982373755
-0,391701811153325
-0,39287958406203
-0,394727306280402
-0,397303473218926
-0,400637527913204
-0,404436979384627
-0,408419031999074
-0,412489811104024
-0,416731238656212
-0,421363438013941
-0,42659240734065
-0,432356010438525
-0,438455413030169
-0,444935795545462
-0,451397226337576
-0,457682493368338
-0,463786806030839
-0,469682055467274
-0,475348476007639
-0,480711293494096
-0,485484723249101
-0,489294987157336
-0,492277895304142
-0,494324014398444
-0,495284850330791
-0,494704429045669
-0,492664273973787
-0,489191683096578
-0,48423044802621
-0,478094471036457
-0,470839674657327
-0,462372838199371
-0,452472514734836
-0,441086617749534
-0,428633635339793
-0,415317188177141
-0,40136994086788
-0,386729106103303
-0,371718429159955
-0,356571319221985
-0,341496647626627
-0,326495932415128
-0,311602419154951
-0,296762740894337
-0,282285771841998
-0,268390278070001
-0,255204983215663
-0,242679546114232
-0,230732182448264
-0,219403228984447
-0,20843676012737
-0,19814538789069
-0,18857357079105
-0,180011029704474
-0,172604920073354
-0,166086736393481
-0,160540899400075
-0,155837550755678
-0,151848250570765
-0,148710729754384
-0,146260513447487
-0,144241846832301
-0,14251382961811
-0,141018697700929
-0,139817046827375
-0,138790189954307
-0,137999932259845
-0,137360448195977
-0,136783512156399
-0,136295629876258
-0,135890407549596
-0,135411392198876
-0,134942317476089
-0,134508280483715
-0,133986690485472
-0,133401321098063
-0,132951609870361
-0,132721015532297
-0,132379384747765
-0,132105122964276
-0,131683932333544
-0,131229562392036
-0,130886186154385
-0,13070890680865
-0,130695447631297
-0,130694710531316
-0,130765351361333
-0,130905045935833
-0,13110787954156
-0,131580091368221
-0,1323229383529
-0,133131504651828
-0,134039937214766
-0,135133810196749
-0,13643656527347
-0,137976434654774
-0,13969500917301
-0,141655820616506
-0,14353095450133
-0,14561109053102
-0,147950236241741
-0,150515767272736
-0,153305577605352
-0,156291880888602
-0,15935428721059
-0,162609097853419
-0,165989759694639
-0,169549269900017
-0,173314935876988
-0,177256713359384
-0,181344586912019
-0,18554379746638
-0,189876985212322
-0,19445944117615
-0,199228392382793
-0,204032043657207
-0,208897901356977
-0,21388157166075
-0,218915566780197
-0,224083611276001
-0,229471838836616
-0,234869969142892
-0,240275123171159
-0,245618689114053
-0,251043009287969
-0,256451362969528
-0,261961574193265
-0,26745598494017
-0,272781685380323
-0,278109088510973
-0,283400006373995
-0,288735782152798
-0,293958696318441
-0,299125555036881
-0,304236955664237
-0,309378975318396
-0,314420774840983
-0,319442478692508
-0,324439922114834
-0,329232019881601
-0,333875530704972
-0,338454093478504
-0,34296228668245
-0,34730443796434
-0,351476288225967
-0,355450211922289
-0,359080196110881
-0,362576383267879
-0,365905053375172
-0,369120327974088
-0,372223691345425
-0,375275198879535
-0,378121551533695
-0,380816823075293
-0,383412687529926
-0,385876520478632
-0,38823903008597
-0,390383284102427
-0,39237162390782
-0,394082298240392
-0,395629009071854
-0,397037569797249
-0,398277585220058
-0,399235533521278
-0,400006437208503
-0,400557415850926
-0,401003191262134
-0,401313225884223
-0,401727725831734
-0,402101431835035
-0,402380544910557
-0,402417443823651
-0,402213290668442
-0,401771581135108
-0,401068854691403
-0,400144935680146
-0,398800519571523
-0,397187667178514
-0,395336451147159
-0,393341419687204
-0,391270183681627
-0,389098903149716
-0,386741567388526
-0,384408589685336
-0,38209941975947
-0,379903777349682
-0,377647820059792
-0,37530771710226
-0,372885337488697
-0,370502071855299
-0,36800381500143
-0,365564575324242
-0,363159312819334
-0,360887309336249
-0,358665011342964
-0,356645584884973
-0,354743180698279
-0,353051298770879
-0,351546345673341
-0,350357187366171
-0,349251780898157
-0,348232421988541
-0,347331905766168
-0,346462324424152
-0,345745561969579
-0,345064458580964
-0,344449494758919
-0,343840909545179
-0,343298473342657
-0,342914827688219
-0,342572860161454
-0,342364059659303
-0,342261593192234
-0,342115534258483
-0,342074780084658
-0,342050355648098
-0,342071626851975
-0,342169149989786
-0,342283240053803
-0,342382301809266
-0,34249449177878
-0,34267962766171
-0,343030398566043
-0,34346021978854
-0,343970386376895
-0,344409800163703
-0,344804255568306
-0,345272150152596
-0,345814731481369
-0,346494217490545
-0,347100911123562
-0,347721548663685
-0,348354987159837
-0,349000073852949
-0,349777568553691
-0,350569178146543
-0,351282317817095
-0,352064637379954
-0,352825904818019
-0,353655180748319
-0,354553665019921
-0,355492086702725
-0,356470464757876
-0,357366896103485
-0,358268041411066
-0,359294603214948
-0,360450153297279
-0,361799253034405
-0,363226008455968
-0,364731695794035
-0,366195678303484
-0,36749252921436
-0,368583434057655
-0,369032065646024
-0,368629064847482
-0,367462468886515
-0,365655329136644
-0,363549833389698
-0,361197584075853
-0,358439154486405
-0,354956667433726
-0,350420151080471
-0,345005611103261
-0,338897169829579
-0,332043287315173
-0,324695876028272
-0,31693460533279
-0,308812187649892
-0,300444649241399
-0,291952787723858
-0,283401249820599
-0,27488760981214
-0,266726471796574
-0,25881780833879
-0,251148423041741
-0,243673590710387
-0,236559691972616
-0,229857308710507
-0,223648874205537
-0,218080362985347
-0,213241787863808
-0,209225798909756
-0,206066741258837
-0,203768754756311
-0,202304573918809
-0,201400954676501
-0,200925302189717
-0,200800134000019
-0,201127355074277
-0,201646780245937
-0,202331372689514
-0,203122433907993
-0,204019835815416
-0,205053921301442
-0,206286704276863
-0,20763019646256
-0,208901386708021
-0,210092937464651
-0,211166964094446
-0,212175757151272
-0,213143450768257
-0,214217244036263
-0,215245484068873
-0,216222920011205
-0,217144253969309
-0,217973659840936
-0,218887427552545
-0,219672743834963
-0,220443680780591
-0,221258083096473
-0,221993283979828
-0,222704690502724
-0,22351102263201
-0,22438337035419
-0,225291632101289
-0,226234987625503
-0,227243087225361
-0,228346771851648
-0,229578082609805
-0,230939789471449
-0,232343239971669
-0,233787641787785
-0,235333154618274
