0,0478696596027448
0,0557727898532378
0,063247476246303
0,0701248483857497
0,0762714872797451
0,0815964973498419
0,086055589893856
0,0896519466734312
0,0924338781793239
0,0944895311114418
0,0959391144318219
0,0969252861088662
0,0976024604688236
0,0981258508444021
0,0986410514236388
0,0992748889117074
0,100128146998786
0,10127059702246
0,102738572255774
0,104535117844509
0,106632550812605
0,108977090375185
0,111495080987326
0,114100238469509
0,116701307881171
0,119209531140829
0,121545378561918
0,123644093946612
0,12545972703255
0,126967467760191
0,128164241246299
0,129067658341925
0,129713533808942
0,130152274395128
0,130444497472911
0,130656265505293
0,130854313720841
0,131101611905125
0,131453542157379
0,13195490013972
0,132637845629055
0,133520846615776
0,134608586422661
0,135892740509637
0,137353482181837
0,13896154587606
0,140680662745212
0,142470184318643
0,144287723141791
0,146091661170975
0,147843403793189
0,149509286329189
0,151062068288015
0,15248197648365
0,153757280678488
0,154884404435124
0,155867589917907
0,156718149407833
0,157453349182814
0,158094984030908
0,158667713321441
0,159197242080566
0,159708442146506
0,160223517918059
0,160760326827751
0,161330964814477
0,16194072014761
0,162587484040163
0,163261683207527
0,163946768514122
0,164620256676445
0,165255281030708
0,165822565906628
0,166292700716999
0,166638558224777
0,166837680036902
0,166874443894295
0,166741833598656
0,166442653837848
0,165990067909472
0,165407384079823
0,164727072574736
0,163989055480158
0,163238371192919
0,162522368285776
0,161887626022835
0,1613768263332
0,161025811997391
0,160861056951718
0,160897747179251
0,16113862675313
0,161573706489288
0,162180867058545
0,162927319607036
0,163771820630506
0,164667479480601
0,165564951275499
0,166415778833351
0,167175636838916
0,16780724055023
0,168282708968135
0,168585216187186
0,168709820730689
0,168663426515386
0,168463895298227
0,168138393806881
0,167721114221316
0,167250550090979
0,166766538060331
0,166307287079513
0,165906610869623
0,16559155720095
0,165380591482765
0,165282445444609
0,165295688526796
0,165409024203327
0,16560226037166
0,165847856028286
0,166112909074099
0,166361424661477
0,166556691264336
0,166663592986537
0,166650700521796
0,166492008049977
0,166168216537845
0,165667502525644
0,164985752226882
0,164126280512802
0,163099090137106
0,161919756021585
0,160608040742993
0,15918635953307
0,157678215799873
0,156106721824325
0,154493304988808
0,152856679162023
0,151212135660988
0,149571180636737
0,147941517928693
0,146327350395131
0,144729950202428
0,143148430943864
0,141580642736516
0,140024106005036
0,138476900741791
0,136938435018591
0,135410028842347
0,133895265874809
0,132400084895326
0,130932603686777
0,12950268881448
0,128121304217314
0,126799688226599
0,125548421700432
0,124376458396888
0,123290192219189
0,122292634172953
0,12138276510456
0,120555118939767
0,119799635904393
0,119101807255717
0,118443113369432
0,117801737051033
0,117153514875466
0,116473072535339
0,115735076726193
0,114915526886783
0,113993005916089
0,112949810051664
0,111772884551125
0,110454503240281
0,108992645836779
0,107391046142116
0,105658905626034
0,103810289189449
0,101863241459088
0,0998386814410663
0,0977591493147526
0,0956474903812752
0,0935255667902624
0,0914130870223486
0,089326636158198
0,0872789767581432
0,0852786716330353
0,0833300568940724
0,0814335678659498
0,0795863936513024
0,0777834100247908
0,0760183171559924
0,0742848899493158
0,0725782365173827
0,0708959553839221
0,0692390853969967
0,0676127540921718
0,0660264499110431
0,0644938701218136
0,0630323277984669
0,0616617356477266
0,0604032191995781
0,0592774442553043
0,0583027708409853
0,0574933658614047
0,0568574172152371
0,0563955921316959
0,0560998713526171
0,0559528689552014
0,0559277163175976
0,0559885501065396
0,0560916008624357
0,0561868341830759
0,0562200539241343
0,056135339896436
0,0558776641286357
0,0553955125985633
0,0546433348983511
0,0535836534044943
0,0521886857983696
0,0504413686248642
0,048335712766668
0,0458764707367437
0,0430781470630223
0,0399634323456363
0,0365611851756586
0,0329041201889138
0,0290263823575267
0,0249611952740341
0,0207387639136628
0,0163845905535482
0,0119183279671966
0,00735324927589875
0,00269636266633368
-0,00205085443334097
-0,00689117860245475
-0,0118299432069208
-0,0168730779625574
-0,0220250645901936
-0,0272869950407858
-0,0326549102913055
-0,0381185743432736
-0,0436608015485706
-0,0492574089387376
-0,0548778125094581
-0,060486232036489
-0,0660434173241737
-0,0715087644056736
-0,076842656639307
-0,0820088459661455
-0,0869766852728389
-0,091723034356342
-0,0962336882692355
-0,100504215764673
-0,10454014356849
-0,108356475368518
-0,111976588012432
-0,115430596937328
-0,11875332401176
-0,12198203037474
-0,125154092015485
-0,128304795576595
-0,131465416545243
-0,134661712964472
-0,137912928061554
-0,141231348261774
-0,144622413453673
-0,148085328458454
-0,151614082902847
-0,155198754772422
-0,158826953575484
-0,162485253915281
-0,166160479512309
-0,169840720232872
-0,173515998047061
-0,177178538678858
-0,180822649877897
-0,184444250338292
-0,188040131097372
-0,191607059921754
-0,195140855966406
-0,198635565205256
-0,202082856382993
-0,205471733654478
-0,208788627916052
-0,212017887535268
-0,215142644721314
-0,218145990816677
-0,221012356413674
-0,223728964473144
-0,22628720934395
-0,228683813612087
-0,230921628389267
-0,23300997004971
-0,234964425211053
-0,236806102428235
-0,238560359563627
-0,240255085284113
-0,241918657176842
-0,243577733293208
-0,245255055315801
-0,246967447690875
-0,248724187303556
-0,250525893096237
-0,252364046443145
-0,254221204330721
-0,256071912435306
-0,25788426879543
-0,259622035631189
-0,261247151526487
-0,262722462423405
-0,264014470598946
-0,265095897523155
-0,265947869508657
-0,266561563250805
-0,26693918935804
-0,267094242312825
-0,267051000987812
-0,266843320225395
-0,266512806610562
-0,266106516328214
-0,265674346373653
-0,265266309985472
-0,264929891609805
-0,264707665953756
-0,264635340794874
-0,264740346464651
-0,265041049394165
-0,265546616565763
-0,266257506228761
-0,267166511940752
-0,268260245584689
-0,269520913722426
-0,270928222836118
-0,27246124390776
-0,274100075776401
-0,275827168841216
-0,277628204059714
-0,279492464102023
-0,281412680505672
-0,283384388846227
-0,285404869423318
-0,287471789928635
-0,289581695749512
-0,291728510449389
-0,293902211903214
-0,29608783811111
-0,298264951468069
-0,300407653033632
-0,302485191915831
-0,304463162872309
-0,306305231861478
-0,307975278926376
-0,309439804855204
-0,310670416385605
-0,311646187346733
-0,312355692180939
-0,312798524358446
-0,312986144737812
-0,31294195179479
-0,312700523580482
-0,312306045801653
-0,311810006496363
-0,311268299902345
-0,310737935017137
-0,310273583154498
-0,309924219927154
-0,3097301179693
-0,309720426658314
-0,309911535068974
-0,310306357034309
-0,310894606716257
-0,311654055078726
-0,312552678236794
-0,313551534526265
-0,314608144544433
-0,315680102854602
-0,316728625659175
-0,317721738061395
-0,318636827917183
-0,319462339255956
-0,320198443263029
-0,320856603620721
-0,321458039181824
-0,322031173343475
-0,322608238825388
-0,323221272196128
-0,3238977790054
-0,32465637385259
-0,325502698494062
-0,326425895605055
-0,3273958685975
-0,328361493697024
-0,329249875319919
-0,329966656762726
-0,330397322779969
-0,330409365748442
-0,329855138624664
-0,328575190268021
-0,32640187386473
-0,323163037142814
-0,318685641260046
-0,312799209027207
-0,305339066074172
-0,296149403278721
-0,285086247179002
-0,272020469731242
-0,256840993133057
-0,239458344948153
-0,219808691081954
-0,197858419791334
-0,173609271986555
-0,147103917519093
-0,118431772002148
-0,0877347437782608
-0,0552125063827256
-0,0211268188960811
0,0141956257214016
0,0503623481556572
0,086916710722408
0,123342426241055
0,159071221217908
0,19349376239694
0,225973763227874
0,255864977981939
0,282530580346682
0,305364225434171
0,323811924653138
0,337393735759405
0,345724197555633
0,348530428549372
0,345666865960161
0,337125745492784
0,323042608482772
0,303696361701071
0,27950369279852
0,251007944140039
0,218862850793933
0,183811834886566
0,146663799343575
0,108266562083574
0,0694792031843056
0,0311446529273717
-0,00593617635333119
-0,0410275159393167
-0,0734781019851199
-0,102735987938315
-0,128358305884556
-0,150015782204915
-0,167492124983601
-0,180678695928553
-0,189565138155559
-0,194226836026717
-0,194810221255807
-0,191517002659677
-0,18458838287029
-0,174290237334969
-0,160900077808816
-0,14469641778523
-0,125950918142481
-0,104923437057635
-0,0818598592913656
-0,0569923555049565
-0,0305415394914773
-0,00271986329519075
0,0262644740061336
0,0562038253773573
0,0868882566565028
0,118104098037892
0,149634244606717
0,181260364016687
0,212766956967833
0,243947010247291
0,274608800487262
0,304583265040607
0,333731266590111
0,361950047929458
0,389178205410272
0,415398601268103
0,440638778998528
0,464968630289861
0,48849527187372
0,511355308872789
0,533704870310666
0,55570798550511
0,577524012600044
0,599294921055311
0,621133261526189
0,643111626656064
0,665254317326607
0,687531787674439
0,709858259613456
0,732092687416951
0,754043030919596
0,775473578357373
0,796114862518217
0,815675550542626
0,833855569501892
0,850359664180785
0,864910573747156
0,877261059421365
0,88720411111052
0,894580798949924
0,899285404791013
0,901267655975001
0,900532075461908
0,897134645055273
0,891177139670485
0,882799620025224
0,872171661187479
0,859482940649969
0,844933810845665
0,828726439515637
0,81105702217635
0,792109461714826
0,772050780310198
0,751028388839063
0,7291691993029
0,706580436719665
0,683351897070381
0,659559314151457
0,635268445144517
0,610539464363199
0,58543126640818
0,560005320937312
0,53432878637885
0,50847667262373
0,482532935463869
0,456590480406349
0,430750142868394
0,405118788995167
0,379806741064369
0,354924770118234
0,330580914441111
0,306877376106102
0,283907721248964
0,26175456669092
0,240487880923574
0,220163966845066
0,200825132687228
0,18250000164727
0,165204364412905
0,148942445345966
0,13370843461642
0,119488135456937
0,106260586957865
0,0939995461568291
0,0826747453195658
0,0722528773130309
0,0626982997505527
0,0539734831662841
0,0460392565064454
0,0388549222183457
0,0323783217510879
0,0265659301337429
0,0213730463438535
0,016754126326655
0,0126632804380587
0,00905492983406312
0,00588459016155475
0,00310972881523058
0,000690626417258423
-0,0014088341982654
-0,00322052665840601
-0,00477165228779618
-0,00608457100243677
-0,00717691558265592
-0,0080619866524997
-0,00874939908009276
-0,00924592656338829
-0,00955647234867539
-0,00968508237294006
-0,00963591379467073
-0,00941407724477773
-0,00902628463681034
-0,00848125461230588
-0,00778985257912851
-0,0069649693250537
-0,00602116851920027
-0,00497415644487239
-0,00384014464782806
-0,00263518606768661
-0,00137456665744712
-7,23272907617141E-05
0,00125902437655129
0,00260857400827514
0,00396682044040147
0,00532527068721451
0,00667585204949597
0,00801020611533681
0,00931894617795497
0,0105909685026393
0,0118129078453501
0,012968818489899
0,0140401444797776
0,0150060181130458
0,0158438962766898
0,016530512446351
0,0170430910093908
0,0173607427946991
0,0174659389534846
0,0173459466288928
0,0169941056150471
0,0164108310231334
0,0156042425537923
0,0145903452475438
0,0133927176636268
0,0120416989502519
0,0105731033640054
0,00902652657824844
0,00744333969338824
0,00586449181859577
0,00432825834365857
0,0028680784240192
0,00151062117706029
0,000274206030661144
-0,000832320379209855
-0,0018101785392132
-0,00267068447131273
-0,00343471238885789
-0,00413162854758526
-0,00479776690427718
-0,0054745453489395
-0,0062063420970744
-0,0070382640065456
-0,00801394159771297
-0,00917347944260814
-0,0105516762058641
-0,0121766072123831
-0,0140686358707024
-0,0162398905710991
-0,0186942130463918
-0,0214275547230344
-0,024428771249997
-0,0276807436857721
-0,031161738963055
-0,0348469128504304
-0,0387098558748879
-0,042724086261219
-0,0468644032282791
-0,0511080278901729
-0,0554354764326295
-0,059831129769867
-0,064283484335411
-0,0687850886706136
-0,0733321891333128
-0,0779241243173112
-0,0825625211166921
-0,0872503552183419
-0,0919909449999913
-0,0967869501253009
-0,101639444729012
-0,106547130018519
-0,111505742683106
-0,116507704041173
-0,121542040736425
-0,126594591641999
-0,131648497970494
-0,136684955312483
-0,141684188232934
-0,146626591198155
-0,151493965066024
-0,156270767241928
-0,160945286924208
-0,165510655552982
-0,16996560728528
-0,174314915302115
-0,178569446986669
-0,182745803743168
-0,186865538490575
-0,190953973892144
-0,195038675298668
-0,199147661786239
-0,203307464191221
-0,207541158306191
-0,211866512350188
-0,21629438894095
-0,220827532120729
-0,225459849585361
-0,23017626988887
-0,23495321588223
-0,239759691500589
-0,244558932564851
-0,249310527069763
-0,253972870331046
-0,258505788924191
-0,262873147598936
-0,267045247519612
-0,271000833377017
-0,274728551094422
-0,278227735509629
-0,28150845603718
-0,284590804140249
-0,287503465037369
-0,290281672598514
-0,292964695953618
-0,295593044633246
-0,298205602504265
-0,300836907091374
-0,30351477926002
-0,306258479415885
-0,309077522648562
-0,311971230349665
-0,314929034499012
-0,317931488460116
-0,320951880392824
-0,323958297411821
-0,326915954875313
-0,329789588609394
-0,332545710058246
-0,335154544891208
-0,337591512461157
-0,339838153044536
-0,341882467035196
-0,343718689563156
-0,345346579396132
-0,346770346929095
-0,347997377867002
-0,349036923721438
-0,349898925861258
-0,350593117172479
-0,351128506610251
-0,351513301273311
-0,35175526336425
-0,351862441742682
-0,351844166034607
-0,351712151205267
-0,351481536898957
-0,351171681700079
-0,350806548917834
-0,350414556441334
-0,350027815514837
-0,349680747031508
-0,349408132736694
-0,349242725659982
-0,349212601989721
-0,349338479212796
-0,349631247576336
-0,350089960788924
-0,350700506490403
-0,351435128994295
-0,352252909987337
-0,353101233129338
-0,353918173059226
-0,354635666135981
-0,355183247322921
-0,355492081948057
-0,355498988325704
-0,355150140787508
-0,354404163555734
-0,353234372605603
-0,351629991052011
-0,34959624770445
-0,347153360571815
-0,344334498951484
-0,34118290099135
-0,337748390722082
-0,334083583644516
-0,330240089123706
-0,326265009722205
-0,322198003437814
-0,318069118119779
-0,313897533912039
-0,309691266436775
-0,305447798615476
-0,301155530331526
-0,296795869734776
-0,292345743564225
-0,287780280032468
-0,283075418066465
-0,27821021996992
-0,273168707720666
-0,26794110103461
-0,262524401693389
-0,25692233644631
-0,251144733150109
-0,245206455599084
-0,23912605701683
-0,232924327496927
-0,22662290606677
-0,220243104753787
-0,213805053403025
-0,207327224795398
-0,200826345679325
-0,194317646919812
-0,187815360966113
-0,181333342296919
-0,174885670002729
-0,168487092990711
-0,162153197275387
-0,1559002093203
-0,149744395557529
-0,143701070961473
-0,137783282971974
-0,132000285183946
-0,12635595254168
-0,12084731192929
-0,115463366172933
-0,110184374577309
-0,104981720237947
-0,0998184463229056
-0,0946504848246264
-0,0894285375179401
-0,0841005063082444
-0,07861431494201
-0,0729209217466295
-0,0669772980162526
-0,0607491415226715
-0,0542131102232448
-0,0473583963411723
-0,040187512542528
-0,0327162252598982
-0,0249726395691942
-0,0169955090621972
-0,00883190659488603
-0,000534442010251521
0,00784175352130328
0,0162420428943283
0,0246150710402448
0,032915124437847
0,0411039041202394
0,0491516097323063
0,0570372950975746
0,0647485200058357
0,0722803826674156
0,0796340671203218
0,0868150755375874
0,0938313340517128
0,100691361164655
0,10740267065032
0,113970548311477
0,120397297584125
0,126681997473793
0,132820762746497
0,138807445943676
0,144634678293461
0,150295115826643
0,155782740504659
0,161094065047792
0,166229104035214
0,171192000824058
0,175991236938508
0,180639393778298
0,185152481461474
0,189548891852567
0,193848068332575
0,198069010409573
0,202228744628802
0,206340893600226
0,210414462670769
0,214452940497484
0,218453778248616
0,222408275728914
0,226301865301232
0,23011474973716
0,233822821568891
0,237398771750005
0,240813286121968
0,244036229927426
0,24703773269522
0,249789106614823
0,252263558330036
0,25443668376265
0,256286764610717
0,257794910226227
0,258945106735311
0,259724244413009
0,260122193346383
0,260131986330379
0,259750147886108
0,258977181455127
0,257818196237118
0,256283624297631
0,254389951159586
0,252160362563885
0,249625199274817
0,246822112664372
0,24379582710074
0,240597440407332
0,2372832291482
0,233912968242313
0,230547820731972
0,227247898998036
0,224069638885945
0,221063158852164
0,218269793794849
0,215719995353715
0,213431775902391
0,211409842686845
0,209645523435848
0,208117528529096
0,206793531935027
0,205632488691457
0,204587546285303
0,203609356150222
0,202649554299211
0,201664160505212
0,200616645448115
0,199480435533459
0,198240664273696
0,196895034432953
0,195453722279331
0,193938328812276
0,192379956911631
0,190816561735229
0,189289778886107
0,187841475975418
0,186510294873561
0,185328452316866
0,184319045540657
0,183494068995917
0,182853291258942
0,182384072699318
0,18206212986079
0,181853177982347
0,181715314600187
0,181601950241664
0,181465051342674
0,18125843877549
0,180940884403379
0,180478767633251
0,179848092308075
0,179035718136083
0,178039725684299
0,176868904532171
0,175541424708758
0,174082816488194
0,172523437818301
0,170895647946421
0,169230927232139
0,167557185100742
0,165896480639753
0,16426334496567
0,162663844056624
0,161095459329506
0,159547795621769
0,158004057791103
0,156443173179651
0,154842382679669
0,153180082420039
0,151438674295157
0,149607178716408
0,147683377528919
0,145675288087063
0,14360181864877
0,141492516964639
0,139386393609618
0,137329874065531
0,135374003272661
0,133571088065594
0,131971011748916
0,130617487121824
0,129544526937767
0,128773402646912
0,128310333751663
0,128145102836159
0,128250728655039
0,128584255951955
0,129088641218579
0,129695634301513
0,130329482375492
0,130911220978265
0,131363271135078
0,131614035750287
0,131602184454103
0,131280334497409
0,130617874919008
0,129602739255814
0,128242004440141
0,126561274889342
0,124602895274807
0,122423116795599
0,120088414061463
0,117671207594095
0,115245286266705
0,112881241950293
0,110642223984218
0,1085802943898
0,106733618123403
0,10512465978476
0,103759483892245
0,102628175720417
0,101706319847819
0,100957399838717
0,100335920306602
0,0997910063922733
0,0992702085483626
0,0987232341389019
0,0981053416850369
0,0973801671308008
0,0965218012075977
0,0955159986809272
0,0943604689859144
0,0930642680261245
0,091646377365549
0,0901336146665879
0,0885580638800643
0,0869542423585767
0,0853562330090534
0,0837950026160177
0,0822961036670649
0,0808779188548173
0,0795505584401954
0,078315465010455
0,0771657225654191
0,0760870118402133
0,0750591056480743
0,0740577603108537
0,0730568345064378
0,0720304566045205
0,0709550659317627
0,0698111715281548
0,0685847017391816
0,0672678565779018
0,065859418712807
0,0643645243925206
0,0627939389398849
0,0611629191838163
0,0594897746024976
0,0577942580407323
0,0560959245592537
0,0544125932354778
0,052759032377966
0,0511459653477902
0,0495794642825732
0,0480607652216854
0,0465865033269555
0,0451493338873476
0,0437388760765585
0,0423428940395585
0,0409486151575821
0,0395440790006472
0,0381194124799795
0,0366679363853944
0,0351870246185757
0,0336786583636521
0,0321496413079038
0,0306114668921165
0,0290798525628189
0,0275739775065058
0,0261154780784952
0,0247272681863365
0,0234322598215229
0,0222520616514399
0,0212057314459997
0,0203086516874631
0,0195715878092214
0,0189999760771453
0,0185934740931094
0,0183457921883755
0,018244809421398
0,0182729641409749
0,0184078967072134
0,0186233113332174
0,0188900153812564
0,0191770879716184
0,0194531254631784
0,0196875092596612
0,0198516414024309
0,0199200954396031
0,0198716339889368
0,0196900501012584
0,0193647967765865
0,0188913775871223
0,0182714810440421
0,0175128518172634
0,0166289028084624
0,0156380830162248
0,0145630266986524
0,0134295191162028
0,0122653226913024
0,011098914382577
0,00995819007463386
0,00886919452776723
0,0078549357298962
0,0069343401698693
0,00612140061611377
0,00542456044171215
0,00484636865270115
0,00438342775041101
0,00402664286152687
0,00376176572812747
0,00357021175570701
0,00343011315868493
0,00331755708161834
0,00320794527050857
0,00307740226385872
0,00290415292829795
0,00266978817148851
0,00236034029864184
0,00196709695960063
0,00148709498730907
0,00092325220744015
0,000284115835159513
-0,000416770676237954
-0,00116185587490677
-0,00193087278795636
-0,00270236227334156
-0,00345533500424876
-0,0041709661027692
-0,00483420923722885
-0,00543521719468549
-0,00597046401225563
-0,00644347956915883
-0,00686513033496978
-0,00725340848920223
-0,00763272397512473
-0,00803272805648127
-0,00848673013672857
-0,00902979945271322
-0,00969666744346307
-0,0105195631080997
-0,0115261210786264
-0,0127374996183321
-0,0141668333573308
-0,0158181240277254
-0,0176856432995456
-0,0197538872147149
-0,0219980842259531
-0,0243852214541871
-0,0268755192055338
-0,0294242548596377
-0,0319838159685553
-0,0345058504654126
-0,0369433799621735
-0,039252750132451
-0,0413953092713521
-0,0433387305955216
-0,0450579234868603
-0,0465355110978435
-0,0477618837273935
-0,048734866563036
-0,0494590643928489
-0,0499449630337981
-0,0502078763812184
-0,0502668288391763
-0,0501434559727297
-0,049860992591877
-0,0494433989767416
-0,0489146545970128
-0,0482982268684769
-0,0476167023473962
-0,0468915513611084
-0,0461429858314525
-0,0453898649467435
-0,0446496045892041
-0,0439380536165659
-0,0432693121881252
-0,0426554827813061
-0,0421063614818257
-0,0416290935298085
-0,0412278310788592
-0,0409034408830499
-0,0406533140862932
-0,0404713285726876
-0,0403480065683375
-0,0402708967874173
-0,0402251926167966
-0,040194577245858
-0,0401622651370479
-0,040112188928957
-0,0400302636993858
-0,0399056482148043
-0,0397319166991093
-0,0395080554748144
-0,0392392067296699
-0,0389370961384257
-0,0386201010513298
-0,0383129398435214
-0,0380459888976432
-0,0378542594797443
-0,0377760902968113
-0,0378516310102726
-0,038121205731489
-0,0386236526175802
-0,0393947355230278
-0,0404657164439192
-0,0418621638636925
-0,0436030533212992
-0,0457001942052123
-0,0481579928075109
-0,0509735379969588
-0,0541369744808071
-0,0576321110943218
-0,0614371992655989
-0,0655258105637536
-0,0698677423904457
-0,0744298871446709
-0,0791770119327571
-0,0840724118192079
-0,0890784182979388
-0,0941567643490922
-0,0992688262868599
-0,104375778970994
-0,109438713251681
-0,11441877160745
-0,11927735906833
-0,123976481372613
-0,128479251203472
-0,132750586958281
-0,136758108050995
-0,140473207831078
-0,143872261611042
-0,146937905022205
-0,14966029899987
-0,152038283852865
-0,154080317741259
-0,155805095542804
-0,157241753124475
-0,15842957950114
-0,159417184601663
-0,160261102146118
-0,161023843653092
-0,161771458549764
-0,162570694094369
-0,163485884577001
-0,164575729174744
-0,165890139361959
-0,167467347761894
-0,169331469157235
-0,171490690287191
-0,173936238120692
-0,176642237408378
-0,179566519457643
-0,182652387885965
-0,185831287009442
-0,189026258416936
-0,192156015261446
-0,195139415941486
-0,197900082899173
-0,200370891291149
-0,202498048503217
-0,204244500010585
-0,205592429764453
-0,206544672707293
-0,207124920537591
-0,207376675641453
-0,207360987505178
-0,207153085709372
-0,206838098182789
-0,206506107516012
-0,206246846936998
-0,206144367220863
-0,206272013713376
-0,206688037657183
-0,207432128618439
-0,208523097155814
-0,209957862543217
-0,211711814387891
-0,213740525189177
-0,215982699797797
-0,218364163819551
-0,220802622436839
-0,223212869044417
-0,225512093505501
-0,227624934944421
-0,229487944334809
-0,231053166240599
-0,232290613750969
-0,233189491071451
-0,233758108449195
-0,234022527330032
-0,234024062902777
-0,233815849842618
-0,233458739310364
-0,233016836582092
-0,23255300629052
-0,23212466515242
-0,231780151261661
-0,231555907398428
-0,231474647750386
-0,231544598679436
-0,231759821055289
-0,232101540862589
-0,232540342507629
-0,233039020936131
-0,233555848413667
-0,234047992176664
-0,234474820845224
-0,234800859521465
-0,23499819315742
-0,235048171113075
-0,234942327792775
-0,234682499432436
-0,234280179972088
-0,233755214534799
-0,233133973202139
-0,232447177627447
-0,231727567065807
-0,231007588583915
-0,2303172798633
-0,229682484657011
-0,229123503953695
-0,228654244123638
-0,228281880717181
-0,228007016839459
-0,227824281202653
-0,227723285232645
-0,227689842212732
-0,227707344538539
-0,227758196982558
-0,227825212881894
-0,227892894365635
-0,227948534861702
-0,227983099967153
-0,227991859523646
-0,227974758046315
-0,227936521835209
-0,227886509149811
-0,227838315292163
-0,227809148324777
-0,227818994685739
-0,227889598335638
-0,228043283223968
-0,228301657278832
-0,228684246680341
-0,229207121090501
-0,229881582415746
-0,230712999726327
-0,231699879032742
-0,232833256723736
-0,234096497815087
-0,235465563710589
-0,236909788665739
-0,238393170397731
-0,239876140136073
-0,241317733743373
-0,242678041993898
-0,24392077881091
-0,245015775503987
-0,24594119069508
-0,246685222798706
-0,247247126647612
-0,247637368599199
-0,24787680412445
-0,247994825748681
-0,248026503008094
-0,248008814362261
-0,247976147646845
-0,247955314165879
-0,247960375947705
-0,247987620890474
-0,248011032830147
-0,2479785911554
-0,247809697688555
-0,247393969429354
-0,246591558668023
-0,245235072728792
-0,243133071064444
-0,240075024946668
-0,23583754168624
-0,230191587431894
-0,222910394863837
-0,213777717451676
-0,202596091022897
-0,189194784671972
-0,173437162989894
-0,155227234938686
-0,134515225086886
-0,111302063662572
-0,085642746419188
-0,0576485582613579
-0,0274881821240358
0,00461227504485921
0,0383703135737402
0,0734491239344661
0,109460744292155
0,145970347014691
0,182501734725961
0,218544140697715
0,253560424001255
0,286996722161395
0,318293570741563
0,346898420727645
0,372279384365839
0,393939924767591
0,41143408312724
0,424381720799628
0,432483153627439
0,435532484440638
0,433428907052559
0,426185269306101
0,41393324841946
0,396924609677899
0,375528185655565
0,350222419395632
0,321583549385058
0,290269761365251
0,257001874848618
0,22254135268692
0,187666603043662
0,153148669645264
0,119727467010438
0,0880897055797368
0,0588495659938924
0,0325330263166227
0,00956653040338911
-0,00972957576436954
-0,0251427019784476
-0,0365649243627127
-0,0439855892180176
-0,0474802986466707
-0,047197162245807
-0,0433413290810527
-0,0361588694988683
-0,0259210541767945
-0,0129099812456073
0,00259365985339555
0,0203201129961234
0,0400170415997638
0,0614529113150057
0,0844174587051919
0,108719663011396
0,134183821064105
0,160644450215302
0,187940802165027
0,215911758768272
0,244391802028031
0,273208612717499
0,302182668314139
0,3311289976034
0,359861025072606
0,388196222225825
0,415963093529275
0,443008877542464
0,469207251081429
0,494465293358719
0,518729000374306
0,541986734305703
0,564270140530536
0,585652254014575
0,60624273190722
0,626180373128134
0,645623300824703
0,66473737300969
0,683683535873614
0,702604931800181
0,721614612723914
0,740784686436887
0,760137640622857
0,779640453169178
0,799201917782592
0,81867340430415
0,837853048529485
0,856493142754344
0,874310291270448
0,890997718876257
0,906238986829197
0,919722288131983
0,931154467511258
0,940273941778052
0,946861780426873
0,950750337754603
0,951828996655176
0,950046778504397
0,945411779635709
0,937987598645998
0,927887106484441
0,915264070623327
0,900303265343451
0,883209774952083
0,864198221438435
0,843482622107826
0,821267509020332
0,797740826795289
0,77306897754675
0,747394212547479
0,720834392138812
0,693484961441911
0,665422831970606
0,636711729387913
0,607408474326247
0,577569612415527
0,547257804277772
0,516547425649624
0,485528907986397
0,454311463837257
0,423023979567382
0,391814009341334
0,360844956737175
0,330291672008043
0,300334813061092
0,271154407720033
0,242923107546059
0,215799636088266
0,189922907018171
0,165407223379551
0,142338874368094
0,120774329087712
0,100740097742185
0,0822342005299071
0,0652290637216738
0,0496755606109128
0,0355078399335818
0,02264854125111
0,011013988088265
0,000518974884916253
-0,00891918038268918
-0,0173775654354192
-0,0249257346570974
-0,0316249458075028
-0,0375285118070249
-0,0426831121616761
-0,0471308315916254
-0,0509116400302209
-0,0540660021174971
-0,0566373068165593
-0,0586738376110545
-0,0602300572942053
-0,0613670532198164
-0,0621520721913547
-0,0626571613772552
-0,0629570151485127
-0,0631262004867391
-0,0632359898236777
-0,063351065541809
-0,0635263726410759
-0,0638043849223932
-0,0642130171742073
-0,0647643646059057
-0,0654543860431946
-0,0662635747363974
-0,0671585862248766
-0,0680947224007314
-0,0690191101161833
-0,0698743656380098
-0,0706025060026745
-0,0711488563663028
-0,0714657087907901
-0,0715155111325414
-0,0712734022184542
-0,0707289577531223
-0,0698870662691382
-0,0687679117008256
-0,0674060945586395
-0,0658489736370303
-0,0641543516784506
-0,062387659374386
-0,0606188113773221
-0,0589189154618693
-0,057357012248197
-0,0559970094184109
-0,0548949529599457
-0,0540967509010217
-0,0536364345336135
-0,0535350103847888
-0,0537999252107755
-0,0544251374882153
-0,0553917634581217
-0,0566692443901911
-0,0582169646674906
-0,0599862374682824
-0,0619225660080779
-0,0639680830529428
-0,0660640692661467
-0,0681534515582217
-0,0701831856447042
-0,0721064323337525
-0,073884444640962
-0,075488092760369
-0,0768989662382495
-0,0781100075475736
-0,0791256485249627
-0,0799614406202849
-0,0806431910903326
-0,0812056394693872
-0,0816907308046729
-0,0821455631164193
-0,0826201049183743
-0,0831647931306667
-0,0838281309534788
-0,0846544082997263
-0,0856816634052261
-0,0869399930916756
-0,088450301009285
-0,0902235489685903
-0,0922605474356534
-0,0945522892670766
-0,0970807979082167
-0,099820429916949
-0,102739544033623
-0,105802427267232
-0,10897135422967
-0,1122086504298
-0,115478633823405
-0,118749321441973
-0,121993808293964
-0,125191252378817
-0,128327430321866
-0,131394860407608
-0,134392520874928
-0,137325218863243
-0,140202687050095
-0,143038499210663
-0,145848901677751
-0,148651654816961
-0,15146496774842
-0,154306592005974
-0,157193117571494
-0,160139490079244
-0,163158743536967
-0,166261921032371
-0,169458138823096
-0,172754738454234
-0,176157468118299
-0,17967063841972
-0,183297208474755
-0,187038774365643
-0,190895451509207
-0,194865663111345
-0,198945866065853
-0,203130261102069
-0,207410543763599
-0,211775755462524
-0,216212288913902
-0,22070408988243
-0,225233078480911
-0,229779790041312
-0,23432421026736
-0,238846754616161
-0,243329320502149
-0,247756325400925
-0,25211563638572
-0,256399298215704
-0,260603978313298
-0,26473106711395
-0,268786399934136
-0,272779599215536
-0,276723070897648
-0,280630722392973
-0,284516498892994
-0,28839285649962
-0,292269302586265
-0,296151134263248
-0,300038494417386
-0,30392584208329
-0,307801901610535
-0,311650115831175
-0,315449585608476
-0,319176435453987
-0,322805506285056
-0,326312245294888
-0,32967464236043
-0,33287505439513
-0,335901764514808
-0,338750141580167
-0,341423296176584
-0,343932168833821
-0,346295032011549
-0,348536435096765
-0,35068566734243
-0,352774853332272
-0,354836825802485
-0,35690293882172
-0,359000988931242
-0,361153402389951
-0,363375824114449
-0,365676210072086
-0,368054482839486
-0,370502763300056
-0,373006144095253
-0,375543926516667
-0,37809120570082
-0,380620662446139
-0,383104405833755
-0,385515710265883
-0,387830503448721
-0,390028487042043
-0,392093806920889
-0,394015232079449
-0,395785846535518
-0,397402303144341
-0,398863728138693
-0,400170397025167
-0,401322323356748
-0,40231791007472
-0,403152807771339
-0,40381910579561
-0,404304952126866
-0,404594658897755
-0,404669305665626
-0,404507805878363
-0,40408835744357
-0,403390159829114
-0,402395251108398
-0,401090301492412
-0,399468196872239
-0,397529257259269
-0,395281960121556
-0,392743075651504
-0,389937167149564
-0,386895461251407
-0,383654145589071
-0,380252201207141
-0,376728919519073
-0,373121285098055
-0,3694614232927
-0,365774313789906
-0,362075957229758
-0,358372152637924
-0,3546580007117
-0,350918195081384
-0,347128104528724
-0,343255588376407
-0,339263429638379
-0,335112220628095
-0,330763497637754
-0,32618289814842
-0,321343107874902
-0,316226376443939
-0,310826408999693
-0,305149484465075
-0,299214706377633
-0,293053354954092
-0,286707374632395
-0,280227094697235
-0,273668336943292
-0,267089109370392
-0,26054611516621
-0,254091319551095
-0,247768812413213
-0,241612182545772
-0,235642581512282
-0,22986760464426
-0,224281057406463
-0,2188636118303
-0,213584294751608
-0,208402691877867
-0,203271703418948
-0,198140651579972
-0,192958519974447
-0,187677101095544
-0,182253840343671
-0,176654192325904
-0,170853344919734
-0,164837215558215
-0,158602678581874
-0,152157038121787
-0,145516813791267
-0,138705952741854
-0,131753618254685
-0,124691729754128
-0,117552440561711
-0,110365737586307
-0,103157332094611
-0,095946984287584
-0,0887473688887374
-0,0815635471525407
-0,0743930656995785
-0,067226657628375
-0,0600494794039159
-0,0528427808794089
-0,0455858775788055
-0,0382582757438739
-0,0308417924878657
-0,0233225159706235
-0,0156924633487601
-0,00795081632183251
-0,000104643800492885
0,00783094341524235
0,0158332223383582
0,0238728486244359
0,0319153471684351
0,0399230069415836
0,0478570564141204
0,055679975659534
0,0633577901937773
0,0708621906249479
0,0781723314781942
0,0852761817704765
0,0921713279676446
0,0988651652476304
0,105374453361909
0,111724256190045
0,117946326481975
0,124077036289094
0,130154986323073
0,136218451438215
0,142302832586496
0,148438286686412
0,154647694457799
0,160945102933107
0,16733474559509
0,17381070124335
0,180357205911127
0,186949584048293
0,193555719588982
0,200137948186837
0,206655222119141
0,213065381732346
0,219327363337599
0,225403183663681
0,231259564404574
0,236869095090993
0,242210875379932
0,247270624987224
0,252040296656519
0,256517270343146
0,260703241287683
0,264602937600818
0,268222812266935
0,271569849293561
0,274650604642662
0,277470571587543
0,28003392038454
0,282343617709479
0,284401886799969
0,286210929242654
0,287773798161629
0,289095293477064
0,290182745188955
0,291046560918344
0,291700438447221
0,292161180370185
0,292448092610179
0,292581996886977
0,292583934217108
0,292473677141877
0,292268198084016
0,29198025655946
0,291617266760092
0,291180588811985
0,290665352991781
0,290060879267676
0,289351698911326
0,288519125905849
0,287543269132894
0,286405327583576
0,285089975105881
0,283587622395182
0,281896344414544
0,280023281754372
0,277985363245209
0,275809251332169
0,27353047657562
0,271191797486367
0,268840890327898
0,266527534283023
0,264300504798036
0,262204417458579
0,260276773588509
0,258545445763152
0,257026807689421
0,255724661178477
0,254630047831421
0,253721960242137
0,252968893457162
0,252331108648879
0,25176342344897
0,251218302177482
0,250648997718741
0,250012496779326
0,249272041398047
0,248399039806502
0,247374235198303
0,246188066609705
0,244840226037123
0,24333848389785
0,241696915208565
0,239933706211238
0,238068751939262
0,236121267012678
0,23410762430076
0,232039610163792
0,229923243460787
0,227758252476781
0,225538244189236
0,223251539239683
0,22088258877933
0,218413840839088
0,215827887765426
0,213109705284615
0,210248789093434
0,207241006335261
0,204090005455383
0,200808065900104
0,197416315539441
0,193944294297206
0,190428893128901
0,186912744124507
0,183442176577129
0,180064882752296
0,176827453970145
0,173772951900893
0,170938671977497
0,168354236921621
0,166040130621463
0,16400674864325
0,162254004444753
0,160771492819342
0,159539177037094
0,158528535817796
0,157704082528642
0,157025152874316
0,156447849289034
0,155927030043019
0,155418237872903
0,154879475577178
0,154272752879465
0,153565348354297
0,15273075064252
0,151749263116662
0,150608274324181
0,149302212085256
0,14783221146998
0,146205535855847
0,144434796004195
0,142537014874138
0,14053258635718
0,138444174711435
0,136295598920216
0,134110742914477
0,131912528994233
0,129721988124746
0,127557457041876
0,125433928316616
0,123362575420611
0,121350470215731
0,119400504922007
0,117511524267132
0,115678666192616
0,11389390114572
0,112146750930415
0,110425158667334
0,108716472133697
0,107008494311129
0,10529054796822
0,103554496318981
0,101795659770006
0,100013570032214
0,098212507709336
0,0964017779433029
0,0945956906321195
0,0928132266612164
0,0910773888200238
0,0894142546689502
0,0878517675042806
0,0864183195249347
0,0851411971340372
0,0840449708315399
0,0831499203523396
0,0824705887976419
0,0820145569331806
0,0817815204783083
0,0817627392248073
0,0819409078288281
0,0822904750440275
0,0827784122769318
0,083365405217404
0,0840074155757182
0,0846575354670251
0,0852680364014812
0,085792499728282
0,0861879069758244
0,0864165676952301
0,086447769500654
0,0862590498657585
0,0858370111432422
0,0851776279786999
0,0842860280849261
0,0831757611274715
0,0818676039524378
0,0803879811677954
0,0787671059159505
0,0770369645762569
0,0752292795674644
0,0733735854822457
0,0714955451965346
0,069615614883219
0,0677481411907974
0,0659009420702798
0,0640753872321448
0,0622669576221094
0,0604662285035968
0,0586601903448184
0,0568337981863429
0,0549716252763767
0,0530594916945264
0,0510859437566035
0,0490434747042026
0,0469294002555257
0,0447463320124691
0,0425022249998857
0,0402100099010841
0,0378868530335588
0,0355531150270957
0,0332311003708977
0,030943702765768
0,0287130547996452
0,0265592847733805
0,0244994693783259
0,0225468499164981
0,0207103539568128
0,0189944362809524
0,0173992252675743
0,0159209360629944
0,0145524920899
0,013284283301448
0,0121049839640127
0,0110023548192965
0,0099639636002741
0,00897777276351233
0,00803256214719005
0,00711817490812228
0,00622559530124464
0,00534688452484234
0,00447501421326288
0,00360364500192644
0,00272689931120809
0,00183917322254222
0,000935022814626263
9,1469136556365E-06
-0,000943527385473376
-0,00192766591648517
-0,00294727902788914
-0,00400543809689625
-0,0051039977676012
-0,00624336572510992
-0,00742235744981741
-0,00863816429433512
-0,0098864504501365
-0,0111615795360438
-0,0124569563930309
-0,0137654560796594
-0,0150799016529923
-0,0163935463513024
-0,0177005150239484
-0,0189961641640271
-0,0202773292047837
-0,0215424406939457
-0,0227915060382956
-0,0240259688538477
-0,0252484717030739
-0,0264625583814419
-0,0276723576503271
-0,0288822905572412
-0,0300968381497964
-0,0313203960034079
-0,0325572277796355
-0,0338115137243486
-0,0350874736617941
-0,0363895297842395
-0,0377224643714387
-0,0390915230768151
-0,0405024165328276
-0,04196118200194
-0,0434738819640218
-0,045046136536811
-0,0466825093515432
-0,0483857894427253
-0,0501562321150704
-0,0519908369746275
-0,0538827491379513
-0,0558208685102483
-0,0577897412930601
-0,0597697878958591
-0,0617378936088601
-0,0636683550651761
-0,0655341398025025
-0,0673083816754742
-0,0689660051544725
-0,0704853500731363
-0,0718496579341754
-0,0730482832257664
-0,0740775089820258
-0,0749408742735949
-0,0756489604000098
-0,0762186290504796
-0,0766717554262374
-0,0770335476010619
-0,0773305854364819
-0,0775887437273703
-0,0778311813990311
-0,0780765790967519
-0,0783377906356985
-0,0786210403118115
-0,0789257505588785
-0,0792450268405067
-0,0795667641791365
-0,0798752781916039
-0,0801533089526178
-0,0803842040552009
-0,080554062472469
-0,0806536164080326
-0,0806796455193941
-0,0806357559791832
-0,0805324129763006
-0,0803861848165526
-0,0802182335747429
-0,0800521642278011
-0,0799114139157069
-0,079816418488844
-0,0797818288388038
-0,0798140605004985
-0,0799094445336414
-0,0800532061221493
-0,0802194324874671
-0,0803721086743519
-0,0804672056051059
-0,0804557076961941
-0,0802873762091996
-0,0799149678728285
-0,0792985736879392
-0,0784097159179856
-0,0772348454060218
-0,0757779171053143
-0,074061786855709
-0,0721282619193702
-0,0700367443546518
-0,0678615209423068
-0,0656878661655497
-0,0636072258016237
-0,0617118289687827
-0,0600891286769331
-0,0588164901960227
-0,0579565308350413
-0,0575534650936411
-0,0576307297141427
-0,0581900606313122
-0,0592120770223889
-0,060658306674781
-0,0624744721529841
-0,0645947586285177
-0,0669467101413986
-0,0694563576483574
-0,0720531729145379
-0,0746744674407545
-0,0772689124934728
-0,0797989393938424
-0,0822418807651069
-0,0845898241293635
-0,0868482591333266
-0,0890336990775725
-0,0911705377565867
-0,0932874572716882
-0,095413727271943
-0,0975757297071163
-0,0997940071684128
-0,102081071521921
-0,104440129242695
-0,10686478872205
-0,109339721622634
-0,111842163895364
-0,114344070169114
-0,116814684113306
-0,119223261110517
-0,121541679660999
-0,12374670334164
-0,125821702322382
-0,127757706923108
-0,12955373849166
-0,131216437387828
-0,132759076455501
-0,134200104346936
-0,135561401152293
-0,136866445737957
-0,138138589004476
-0,139399601304171
-0,140668618985629
-0,141961559714361
-0,143291015260442
-0,144666570758037
-0,146095447690605
-0,147583329743413
-0,149135210400203
-0,150756100910886
-0,152451457079803
-0,154227220978008
-0,156089425067208
-0,158043365607129
-0,160092413023856
-0,162236582241226
-0,164471029479427
-0,16678466844158
-0,169159104645416
-0,171568070503017
-0,173977506455181
-0,176346378144714
-0,178628251263985
-0,180773570849782
-0,18273251770757
-0,184458248789257
-0,18591027746389
-0,18705771924492
-0,187882122256216
-0,188379620916244
-0,188562195001057
-0,1884578810239
-0,188109863419404
-0,187574462386996
-0,186918125661558
-0,186213614934305
-0,185535646766243
-0,184956296416228
-0,184540496742744
-0,184341961056714
-0,184399828739559
-0,184736278188541
-0,185355277849903
-0,186242559081002
-0,187366801687227
-0,188681931981272
-0,190130351548042
-0,191646849094031
-0,193162902774972
-0,194611059403178
-0,195929080883782
-0,197063576030298
-0,197972884465838
-0,198629043944257
-0,199018747260158
-0,199143273543244
-0,199017454669936
-0,1986678048834
-0,198129995593147
-0,197445894211964
-0,196660403911112
-0,195818340102816
-0,194961560651249
-0,194126533037549
-0,193342476702205
-0,192630166979328
-0,192001433027252
-0,191459330341438
-0,190998922621074
-0,190608570922871
-0,190271602051867
-0,189968213862479
-0,18967747229946
-0,189379262413363
-0,189056071386797
-0,188694503481505
-0,188286452262406
-0,187829882124399
-0,187329196970245
-0,186795197283294
-0,186244646822342
-0,185699486278588
-0,185185743571587
-0,184732199468339
-0,184368873561337
-0,184125400077294
-0,184029366099316
-0,184104686925546
-0,184370094475859
-0,184837814571621
-0,185512506878779
-0,186390536498458
-0,1874596377073
-0,188699017411238
-0,190079928028004
-0,191566716777941
-0,193118331330334
-0,194690231690456
-0,196236626990504
-0,197712925845071
-0,199078262905687
-0,200297944961181
-0,201345650049113
-0,202205214650315
-0,202871858492559
-0,203352724109393
-0,20366664828973
-0,203843132839884
-0,203920539549108
-0,203943594717708
-0,203960347342104
-0,204018776947856
-0,204163287224341
-0,204431345743686
-0,204850534894398
-0,205436262884928
-0,206190346125503
-0,207100617148397
-0,208141638868312
-0,209276521503829
-0,210459749098621
-0,211640835392764
-0,212768551037064
-0,213795402708057
-0,21468200539087
-0,215400976297074
-0,2159399948288
-0,216303717790536
-0,216514310320185
-0,216610446220414
-0,216644739991332
-0,216679688933893
-0,21678231839755
-0,21701782766656
-0,217442619820805
-0,218097159213066
-0,218999129916248
-0,220137365009221
-0,221466979847862
-0,222906075161206
-0,224334283022419
-0,225593317595005
-0,226489571553168
-0,226798677490096
-0,226271840505972
-0,224643651759674
-0,221641019615053
-0,216992809553519
-0,210439768110702
-0,201744318964088
-0,190699857607332
-0,177139229359546
-0,160942146673516
-0,142041377945789
-0,120427613326253
-0,0961529762167953
-0,0693331966131936
-0,0401484906580004
-0,00884319878025218
0,0242757758130625
0,0588417115771632
0,0944320126660634
0,130573403292693
0,166748449826283
0,202403499510341
0,23695811450657
0,269816043775094
0,300377711605458
0,328054111998206
0,35228188763904
0,372539248805349
0,388362261764618
0,39936092009836
0,405234318576192
0,405784189581166
0,400926046761963
0,390697216481369
0,375261127959152
0,35490737630424
0,330047262946005
0,301204744745627
0,269002972097192
0,234146850492091
0,197402300929358
0,1595731036984
0,121476370745226
0,083917790318679
0,0476678146583515
0,0134399130696206
-0,0181281093137469
-0,0464889149289468
-0,0711959885460595
-0,0919092499888153
-0,108395924611945
-0,120526958847918
-0,128269528729864
-0,131676403945512
-0,130873083298079
-0,12604369902331
-0,117416692593086
-0,105251194990692
-0,0898249074477713
-0,071424087160727
-0,0503360135771239
-0,0268440642726586
-0,00122528603776897
0,0262498732553197
0,0553161853860145
0,0857112523871437
0,117172804112412
0,149436372228475
0,18223395738878
0,215294176481986
0,248344202411542
0,281113606074047
0,313339997338553
0,344776157803136
0,375198180680939
0,404413997694188
0,432271590798578
0,458666164856539
0,483545597734004
0,506913583332444
0,528830032564498
0,549408485079756
0,568810495507698
0,587237175404019
0,60491827897463
0,622099401174483
0,639027997428666
0,655939024864031
0,673041039444137
0,690503560071792
0,708446432188748
0,726931796368511
0,745959101882369
0,765463413780575
0,78531705861132
0,805334452869403
0,825279773186065
0,844876970113484
0,863821507533774
0,881793133702958
0,898468960785379
0,913536147179089
0,92670353749408
0,937711712507227
0,94634102738211
0,952417361048546
0,955815452347339
0,95645984888181
0,954323632806656
0,949425205730234
0,941823506155537
0,931612093195751
0,918912557896114
0,903867718815029
0,886635024278211
0,867380524353767
0,846273697088148
0,823483322674666
0,799174503316028
0,773506832634934
0,746633633161949
0,718702109081706
0,689854208192945
0,660227954401613
0,629959000894908
0,599182163582103
0,568032722176448
0,536647318860236
0,50516433739373
0,47372370383586
0,442466108676095
0,411531704356178
0,381058377782342
0,351179731312354
0,322022925837412
0,293706545191327
0,266338632714158
0,240015029978204
0,214818117063302
0,190816016577135
0,168062283525087
0,146596063786058
0,126442668781842
0,107614485764595
0,0901121240905501
0,0739256890354862
0,0590360763697093
0,0454161922725277
0,0330320226815471
0,021843501616613
0,0118051567557809
0,00286653975481494
-0,00502752422711214
-0,0119368110157732
-0,0179256234108408
-0,0230626882257843
-0,0274209443647
-0,0310771504969587
-0,0341112567345493
-0,0366055063304828
-0,0386432589329823
-0,0403075541423853
-0,0416794607843652
-0,0428362812815031
-0,04384969985653
-0,0447839765021879
-0,0456942946638407
-0,0466253688657053
-0,0476104090815141
-0,0486705220596261
-0,0498146070649808
-0,051039776014481
-0,0523322974637042
-0,0536690322954383
-0,0550192982344355
-0,0563470724872459
-0,0576134187095856
-0,0587790077631431
-0,0598065925996915
-0,0606632969927427
-0,0613225860663167
-0,0617658035100399
-0,0619831852982886
-0,0619742913757711
-0,0617478333540935
-0,061320915588065
-0,0607177465234787
-0,0599679142189334
-0,0591043517756157
-0,0581611425134508
-0,05717132902142
-0,0561648931381519
-0,0551670647061301
-0,0541970956126432
-0,0532676032176317
-0,0523845456063755
-0,0515478429258397
-0,0507526077451056
-0,0499908967214294
-0,0492538498393821
-0,048534045960355
-0,0478278777312992
-0,0471377376533481
-0,046473811919233
-0,0458552998332156
-0,0453109133669947
-0,0448785614527575
-0,0446041836488436
-0,0445397634906261
-0,0447406182782747
-0,0452621240068406
-0,0461560865969917
-0,0474670090477914
-0,0492285250564443
-0,0514602707834011
-0,0541654469597479
-0,0573292842808161
-0,0609185683337167
-0,064882310009263
-0,0691535683666536
-0,0736523510346544
-0,0782894385120391
-0,0829709091953874
-0,0876030869564225
-0,0920975970394457
-0,0963762019121578
-0,100375097867876
-0,104048385269754
-0,107370478261269
-0,110337289816658
-0,112966110221069
-0,115294185508486
-0,117376090642142
-0,119280073904049
-0,121083618190659
-0,122868516671433
-0,124715790958226
-0,126700787427657
-0,128888771294116
-0,131331299791003
-0,134063598389221
-0,137103091650951
-0,140449158516094
-0,144084096465593
-0,147975196293643
-0,152077754956153
-0,156338793304411
-0,160701202468236
-0,165108019946861
-0,169506535227142
-0,173851944580085
-0,17811031367532
-0,182260661554504
-0,186296045995621
-0,190223603395223
-0,194063570614455
-0,197847386489216
-0,201615032055749
-0,205411816908155
-0,209284851471401
-0,213279459528969
-0,217435781667035
-0,221785799168851
-0,22635097144494
-0,231140631332161
-0,236151225436592
-0,241366425429515
-0,246758075297024
-0,25228788328628
-0,257909719461579
-0,263572343492036
-0,269222364605027
-0,274807227714218
-0,280278026494816
-0,285591964606766
-0,290714318333458
-0,295619794852766
-0,300293226893468
-0,304729593047907
-0,308933399985609
-0,312917504847598
-0,316701490448275
-0,320309730356538
-0,32376929421582
-0,327107845320584
-0,330351672997441
-0,333523983007671
-0,336643542021007
-0,339723739681226
-0,342772096735107
-0,345790213001367
-0,348774117316925
-0,351714955383817
-0,354599932392139
-0,357413416531109
-0,360138107333185
-0,36275617881766
-0,36525032045465
-0,367604617404886
-0,369805233157658
-0,37184088032668
-0,373703086680643
-0,375386281460959
-0,376887740054637
-0,378207432138213
-0,379347819118857
-0,380313641411922
-0,381111725792037
-0,381750829259437
-0,382241520463106
-0,382596084783282
-0,382828426692308
-0,382953934712092
-0,382989271425454
-0,382952054193458
-0,38286040141349
-0,382732333531793
-0,38258503614919
-0,382434012460451
-0,382292171708227
-0,38216891690953
-0,382069306695697
-0,381993370928152
-0,381935656693594
-0,381885070021479
-0,381825059723155
-0,381734164496362
-0,381586914967463
-0,381355051345655
-0,381008987753049
-0,380519429105081
-0,379859028280194
-0,379003962365736
-0,377935308291053
-0,376640110464324
-0,375112055388843
-0,373351698924115
-0,371366228272233
-0,369168779644124
-0,366777370368657
-0,364213537335019
-0,361500798918696
-0,358663072426351
-0,355723182005261
-0,352701582471449
-0,349615403364847
-0,346477886598932
-0,343298253217615
-0,340081993560675
-0,336831534471006
-0,33354720101041
-0,330228361951863
-0,326874630847423
-0,323486989458863
-0,320068708292155
-0,316625959100836
-0,313168044610575
-0,309707208343947
-0,30625802863211
-0,302836441650029
-0,29945847461904
-0,296138798671215
-0,292889228560046
-0,289717301792851
-0,286625062477288
-0,283608156134379
-0,280655312964012
-0,277748261640725
-0,27486207730857
-0,271965929961977
-0,269024166626054
-0,265997635871643
-0,262845148555953
-0,259524965448537
-0,255996210531981
-0,252220126945286
-0,248161118407481
-0,24378754928176
-0,239072307538895
-0,233993163055936
-0,22853297547576
-0,222679818701433
-0,216427091332998
-0,209773673647711
-0,202724173000988
-0,195289272946464
-0,187486170102948
-0,179339050668507
-0,170879529635053
-0,16214695407316
-0,153188460709049
-0,14405867963746
-0,134818991461315
-0,125536273930248
-0,116281114323517
-0,107125512139614
-0,0981401487512445
-0,0893913515686528
-0,080937924768474
-0,0728280519074076
-0,0650964937228603
-0,0577623043328644
-0,0508272696668986
-0,0442752337657005
-0,0380724238709161
-0,0321688178400089
-0,026500522499372
-0,0209930551623111
-0,015565348977881
-0,0101342422779232
-0,00461916792960595
0,00105326490896727
0,00694510487956374
0,013103593656379
0,0195586424185345
0,0263214254591488
0,0333841883846128
0,0407212817634029
0,0482913429808729
0,056040466394608
0,0639061310341276
0,0718216015801011
0,0797204862671295
0,087541127020072
0,0952305130602406
0,102747447916763
0,11006475807999
0,117170404692489
0,124067441973182
0,130772851102795
0,13731535963025
0,143732428079829
0,150066642198527
0,156361787338082
0,162658898442003
0,168992574353101
0,175387819579246
0,181857632777254
0,188401502746634
0,195004904350706
0,201639813751873
0,208266189997565
0,214834303456122
0,221287735328141
0,227566830044133
0,233612356235802
0,239369123315379
0,244789309526337
0,24983528232304
0,25448173090262
0,258716980499769
0,262543415024698
0,265976994817236
0,269045915668696
0,27178851012202
0,27425053899705
0,27648205748482
0,278534063974699
0,280455149980117
0,282288365787643
0,284068499362474
0,285819936932488
0,287555234512913
0,289274483013176
0,290965498355555
0,292604815428112
0,294159413874472
0,295589057782782
0,296849093071752
0,29789351814089
0,298678126911002
0,299163519820295
0,299317787958031
0,299118697796337
0,298555237610442
0,297628429583634
0,296351361066929
0,294748441256652
0,292853942200329
0,290709931873555
0,288363748704301
0,285865198307304
0,28326367193465
0,280605390737841
0,277930969762077
0,275273471222228
0,272657079546105
0,270096483557835
0,267596997329348
0,265155394707621
0,262761377598528
0,26039954904245
0,258051722905212
0,255699375817166
0,253326036184737
0,25091941069166
0,248473070560124
0,245987556406808
0,24347080903108
0,240937890126834
0,238410017138667
0,235912995304301
0,233475182427376
0,231125163516333
0,22888933944849
0,226789643674477
0,224841592529756
0,223052848360294
0,221422432285288
0,219940668424363
0,21858987824872
0,217345777761424
0,216179467105159
0,215059847530742
0,213956259393252
0,212841110850394
0,211692262739077
0,21049495146485
0,209243067696798
0,207939661493974
0,20659660988609
0,205233455470159
0,203875497994893
0,202551288763682
0,201289733912364
0,200117051997133
0,199053850081307
0,19811257855847
0,197295598201274
0,196594045314038
0,195987616183448
0,195445315648656
0,194927133057803
0,194386529189136
0,193773546906317
0,193038302678168
0,192134580681158
0,19102323930342
0,189675152752645
0,188073447200674
0,186214848414791
0,184110031222422
0,181782944059556
0,179269167063246
0,1766134421964
0,173866581769295
0,171082011493449
0,168312231566543
0,165605481960787
0,163002875936179
0,160536221013929
0,158226683314362
0,156084375107232
0,154108863522406
0,152290517948531
0,150612541917172
0,149053478482879
0,147589941193837
0,146199308745368
0,144862131246459
0,143564028520573
0,142296912722887
0,141059433855265
0,139856621297863
0,138698770396914
0,137599693599343
0,136574514309766
0,135637223449691
0,134798240111999
0,134062217059056
0,133426309498634
0,13287908385172
0,132400186081168
0,131960821845293
0,131525029317969
0,131051656299667
0,130496892187162
0,129817157619605
0,128972124034886
0,12792762423458
0,126658223929996
0,125149251948388
0,123398130568397
0,121414903296499
0,119221920358247
0,116852706882637
0,114350099879066
0,111763792770084
0,109147466499613
0,106555711293605
0,104040951585046
0,10165057846357
0,099424470635895
0,0973930488910452
0,0955759639215722
0,0939814671581169
0,0926064633057775
0,0914371956493361
0,090450474563642
0,089615328842979
0,0888949403355926
0,0882487156856707
0,0876343544265933
0,0870097888835468
0,0863348961257619
0,0855729127462147
0,0846915163744046
0,0836635703306186
0,0824675567358428
0,0810877462030205
0,0795141671794252
0,0777424441248585
0,0757735709359841
0,0736136751971642
0,0712738115516424
0,0687698009689993
0,066122109573616
0,0633557387532452
0,0605000801609974
0,0575886772571216
0,0546588308521621
0,0517509906845417
0,0489078883824785
0,0461733883574152
0,0435910605578761
0,0412025100686963
0,0390455303703175
0,0371521764250396
0,0355468774433814
0,0342447244208637
0,0332500720537546
0,0325555871462285
0,0321418558056931
0,0319776303838595
0,0320207562147522
0,0322197706369342
0,0325161162274022
0,0328468608444242
0,0331477731967157
0,0333565683239629
0,0334161159660986
0,0332773987338646
0,0329020175296628
0,0322640685557805
0,0313512579468118
0,0301651735568844
0,0287206946706797
0,0270445845068507
0,0251733720184319
0,0231506835060185
0,0210242261967264
0,0188426515028081
0,0166525327891278
0,0144956802267203
0,0124069846556956
0,0104129357003525
0,00853090068725706
0,00676918523962054
0,00512782947330252
0,00360003144360904
0,00217403738843453
0,000835301076442055
-0,000431304475242908
-0,0016394387697058
-0,00279960421820524
-0,00391797165764595
-0,00499582450636977
-0,0060296626376891
-0,00701194098426798
-0,00793235435862207
-0,0087795249909081
-0,00954290802818443
-0,0102147066934556
-0,0107915853385162
-0,0112759856757448
-0,0116768876568704
-0,0120099085477773
-0,0122966969785337
-0,012563647356933
-0,0128400276162943
-0,0131556735237077
-0,0135384499874455
-0,0140117093848323
-0,0145919858882419
-0,0152871519510723
-0,0160952293137293
-0,0170039948315893
-0,0179914554865562
-0,0190271927560127
-0,020074500552436
-0,0210931698247849
-0,0220427129104371
-0,0228857772120423
-0,0235914746409516
-0,0241383527729717
-0,0245167560573918
-0,0247303690087938
-0,024796794687405
-0,0247470958603487
-0,0246243070928034
-0,024481006982989
-0,0243761142398303
-0,0243711333092709
-0,0245261197262533
-0,0248956588336149
-0,0255251521019416
-0,0264476830687326
-0,0276816917630431
-0,0292296259005197
-0,0310776639758339
-0,0331965254680495
-0,0355433029281119
-0,0380641759513531
-0,0406978036371931
-0,0433791447688218
-0,0460434270392792
-0,0486299800058547
-0,0510856612607331
-0,0533676401235555
-0,0554453549888471
-0,0573015251752699
-0,0589321705943445
-0,0603456672635142
-0,0615609379948295
-0,0626049402228532
-0,0635096624032138
-0,0643088732268721
-0,0650348818981234
-0,0657155621744175
-0,0663718684512817
-0,0670160309869601
-0,0676505626658185
-0,0682681457074239
-0,0688523982884351
-0,0693794532769732
-0,0698202191633211
-0,0701431414058148
-0,0703172445348907
-0,0703152142146051
-0,070116275553533
-0,06970863940871
-0,0690913210843885
-0,0682751831929984
-0,0672831129906249
-0,066149309846615
-0,0649177257548127
-0,0636397658890266
-0,0623714123175545
-0,0611699778769443
-0,0600907254954951
-0,0591835988104841
-0,0584903018823088
-0,0580419398023329
-0,0578573899911002
-0,0579425192453157
-0,0582902983634136
-0,0588817993782973
-0,0596879952718303
-0,0606722235912347
-0,0617931281892294
-0,0630078609451316
-0,0642753101606125
-0,065559125371897
-0,066830328943673
-0,06806934110321
-0,0692672936914967
-0,070426564620728
-0,0715605249913326
-0,0726925489492895
-0,0738543879544244
-0,0750840520765399
-0,0764233682525873
-0,0779153974219767
-0,0796018888430787
-0,0815209318759042
-0,0837049355410777
-0,0861790277627878
-0,0889599235030182
-0,0920552684208531
-0,0954634264288023
-0,0991736491370135
-0,103166545282935
-0,107414760191905
-0,111883779139544
-0,116532782869214
-0,121315505997111
-0,12618107622101
-0,131074840290649
-0,135939207598026
-0,140714560436032
-0,145340288616227
-0,149756003496755
-0,15390297218292
-0,15772578770655
-0,161174257737942
-0,164205456303298
-0,166785844354219
-0,168893330487592
-0,170519117166167
-0,171669164337451
-0,172365104238945
-0,172644459878379
-0,172560054978522
-0,17217855323332
-0,171578126050733
-0,170845315751446
-0,17007122970331
-0,169347263931295
-0,168760606291034
-0,16838980400505
-0,168300694152284
-0,168542986119481
-0,169147751657489
-0,170126022626523
-0,17146862242702
-0,173147269914145
-0,175116901029863
-0,177319061009973
-0,179686136524364
-0,182146129663747
-0,184627630289376
-0,187064624215683
-0,189400784134231
-0,191592927917015
-0,193613392327474
-0,195451154394485
-0,197111631086337
-0,198615192491028
-0,199994525848097
-0,201291078994993
-0,202550884413097
-0,203820112921056
-0,205140725073118
-0,206546576788935
-0,208060294599496
-0,209691168591702
-0,211434223385711
-0,213270526781828
-0,215168690658531
-0,217087418323897
-0,218978865400365
-0,220792514913776
-0,222479227208924
-0,223995114940122
-0,225304913419796
-0,226384565087611
-0,227222809342491
-0,227821658892331
-0,228195743043767
-0,228370598106583
-0,228380076453127
-0,228263120679477
-0,228060201228781
-0,227809740327668
-0,227544840254396
-0,227290600556333
-0,227062250248737
-0,226864242893008
-0,226690372163738
-0,226524871543332
-0,226344372817286
-0,226120522311687
-0,225822998108238
-0,225422640803109
-0,224894407186018
-0,224219880441424
-0,223389119410505
-0,222401698015825
-0,221266867331039
-0,220002858844479
-0,218635429860154
-0,217195822635537
-0,215718361013152
-0,214237937022441
-0,212787642607163
-0,211396778315428
-0,2100894240373
-0,208883691661596
-0,207791702590351
-0,206820252370076
-0,205972048603083
-0,205247344661664
-0,204645747213332
-0,204167954883026
-0,203817190903799
-0,203600123994317
-0,203527126047123
-0,20361178716847
-0,203869691037928
-0,204316538118729
-0,20496578229084
-0,205826009853748
-0,206898331748418
-0,208174075524107
-0,209633050759136
-0,211242620912376
-0,212957749190765
-0,214722101827436
-0,216470196837972
-0,218130488842542
-0,219629190187592
-0,220894554130229
-0,221861294637389
-0,222474794601696
-0,222694762619432
-0,222498037559549
-0,221880306736283
-0,220856591740459
-0,219460457900917
-0,217742009689944
-0,215764835375789
-0,213602150600397
-0,211332454365906
-0,209035046311392
-0,206785757989122
-0,204653222855049
-0,202695952668516
-0,200960407410447
-0,199480149367122
-0,198276068810081
-0,19735756850266
-0,19672450641228
-0,196369628757847
-0,196281184956103
-0,196445405822095
-0,196848547150088
-0,197478250319442
-0,198324044815376
-0,19937690730872
-0,200627889485903
-0,202065922705763
-0,203674992699612
-0,205430943848817
-0,207298214023735
-0,2092268138924
-0,211149848286486
-0,21298183370169
-0,21461800011776
-0,215934683973032
-0,216790830671198
-0,217030538441305
-0,216486499323252
-0,214984134930455
-0,212346189857072
-0,208397536992786
-0,202969966504197
-0,195906770889696
-0,187066996699108
-0,176329301558203
-0,163595424107432
-0,148793335089975
-0,131880181519384
-0,112845155699904
-0,0917124124998842
-0,0685441203452647
-0,0434436661198464
-0,0165589470670914
0,0119144174908653
0,0417302243448916
0,0725895367556509
0,104139679276834
0,135974845607955
0,167638781436956
0,198629949223306
0,228409476998408
0,256412041882335
0,282059649120362
0,304778051420665
0,324015327109077
0,339261917284822
0,350071230868291
0,356079780388338
0,357025726441715
0,352764696829829
0,34328181410634
0,328699013260967
0,309276953664667
0,285411114126931
0,257621989234028
0,226539657047257
0,192883337919705
0,157436886030454
0,121021424817936
0,0844665335934673
0,0485814990321667
0,0141281521541796
-0,0182032835857321
-0,0478140991562903
-0,0742118034424598
-0,0970190054063507
-0,11597623764479
-0,130938877456637
-0,141868698858965
-0,148820922597133
-0,151927896773212
-0,151380719150791
-0,147410191125094
-0,140268468163202
-0,130212645603407
-0,117491303332537
-0,102334746058656
-0,0849493411981617
-0,0655160007508653
-0,0441925053297879
-0,0211190551317287
0,00357382155769589
0,0297560473973904
0,0572885919522778
0,0860150015260966
0,115754873058095
0,146300091155722
0,177414388512105
0,208836485271703
0,240286737730284
0,271476907762911
0,302122377514304
0,33195590221985
0,360741835994501
0,388289693366919
0,414465928599825
0,43920292348987
0,462504363346692
0,484446434958123
0,505174579356479
0,524895852693629
0,543867265666181
0,562380761623099
0,580745734059688
0,599270158249715
0,618241507268542
0,637908633916359
0,658465727849201
0,680039308728792
0,702679004099944
0,726352602129158
0,75094558436633
0,776265053681587
0,802047698455527
0,827971194913329
0,853668260762579
0,878742446180378
0,902784688727089
0,92538966768639
0,946171066297528
0,964774978449002
0,980890867230431
0,994259681387779
1,0046789461913
1,01200485162579
1,01615154866569
1,01708802154122
1,01483302141481
1,00944861940004
1,00103296283113
0,989712800212267
0,975636282649691
0,9589664606158
0,939875784269382
0,918541793708422
0,895144062958826
0,86986234784697
0,842875791286255
0,81436296601948
0,784502488216716
0,753473916794493
0,721458661761319
0,688640657122374
0,655206604961723
0,621345661282864
0,58724850438117
0,553105796405801
0,519106112283662
0,485433462357609
0,452264572226079
0,419766103334578
0,388092000330014
0,357381137171216
0,327755405901061
0,29931835329588
0,272154425473761
0,246328833357415
0,221888006945349
0,1988605673835
0,177258715852135
0,157079919193252
0,138308764850717
0,12091886176282
0,104874677996199
0,0901332279949482
0,0766455495660744
0,0643579401388708
0,053212950386785
0,0431501583010172
0,0341067661216451
0,0260180747167639
0,0188178944729774
0,012438948720324
0,00681331618140341
0,00187294441745705
-0,00244975117098648
-0,0062212064475422
-0,00950596627130934
-0,0123659150607234
-0,0148595235063179
-0,0170411584916552
-0,0189605014685536
-0,0206621136055519
-0,0221851749845335
-0,0235634113114444
-0,0248252066856677
-0,0259938865614778
-0,0270881426837257
-0,0281225626748394
-0,0291082219058841
-0,0300532945794589
-0,0309636444004787
-0,031843362148966
-0,032695226888824
-0,0335210782170103
-0,0343220975762015
-0,0350990060225701
-0,035852192965536
-0,0365817946535532
-0,0372877423164047
-0,0379697980711659
-0,0386275925054341
-0,0392606720953669
-0,039868558318869
-0,0404508145298618
-0,0410071122888606
-0,0415372866255628
-0,0420413699996308
-0,0425195975362753
-0,0429723810321785
-0,0434002555648317
-0,0438038092700593
-0,0441836129264134
-0,0445401702642136
-0,0448739115504599
-0,0451852513171193
-0,0454747259051434
-0,0457432180429184
-0,0459922646250131
-0,0462244313268606
-0,0464437250587256
-0,0466560041218688
-0,0468693377421119
-0,0470942628469064
-0,0473438874292052
-0,0476337971191281
-0,047981734525393
-0,0484070387890077
-0,0489298542743939
-0,0495701405817038
-0,050346538966079
-0,0512751704665299
-0,0523684563897346
-0,0536340603558561
-0,0550740514929455
-0,0566843798737039
-0,0584547380024193
-0,0603688569906607
-0,0624052546755697
-0,064538417731596
-0,0667403635944537
-0,0689824938374606
-0,0712376215759237
-0,0734820342370934
-0,0756974417986228
-0,0778726607903905
-0,0800048964237407
-0,0821005086561873
-0,08417518133034
-0,0862534543766091
-0,0883676243907113
-0,0905560652249776
-0,0928610639051517
-0,0953263047524273
-0,0979941630139178
-0,100902986271877
-0,104084545979536
-0,107561832304189
-0,111347343629783
-0,115441989291419
-0,119834682824293
-0,124502656337301
-0,129412478054282
-0,134521708198231
-0,139781086549047
-0,145137111134074
-0,150534843834328
-0,155920766591611
-0,161245511929652
-0,166466303233755
-0,171548962480382
-0,176469373937739
-0,181214329397941
-0,185781720986539
-0,19018008877868
-0,194427569599002
-0,198550328138025
-0,202580579904031
-0,206554336120146
-0,210509012605002
-0,214481047665257
-0,218503668322776
-0,222604930553757
-0,226806138734644
-0,231120723643888
-0,235553628770382
-0,240101223129383
-0,244751727064941
-0,249486107409731
-0,25427937149973
-0,259102167407705
-0,263922581554796
-0,268708015535656
-0,273427022089857
-0,278050985836586
-0,282555547359435
-0,286921688735925
-0,291136423453615
-0,295193062221358
-0,299091056554503
-0,302835452013041
-0,306436010404195
-0,309906082989572
-0,31326133294424
-0,3165184135766
-0,31969370839367
-0,32280222986771
-0,325856756420615
-0,328867263120489
-0,331840672943645
-0,334780924757122
-0,337689324270365
-0,34056511793193
-0,343406209682432
-0,346209928692772
-0,348973753957017
-0,351695909276906
-0,354375759072832
-0,357013959994245
-0,359612352958696
-0,362173611957464
-0,364700696246246
-0,367196178018966
-0,369661535312351
-0,372096507436068
-0,374498606407971
-0,376862862646736
-0,379181857741222
-0,381446063886204
-0,38364447194544
-0,385765452157961
-0,38779775757066
-0,389731554502299
-0,391559350206357
-0,393276687818632
-0,39488249364964
-0,396378991370413
-0,3977711394469
-0,399065598672997
-0,400269290995662
-0,401387663508825
-0,402422816748354
-0,403371688960312
-0,404224503451734
-0,404963681620218
-0,40556339875737
-0,405989914277041
-0,406202745714369
-0,406156681640886
-0,405804548944286
-0,405100572035667
-0,404004093005875
-0,402483369576545
-0,400519137721036
-0,39810762206157
-0,395262701348158
-0,392016987680096
-0,388421653357061
-0,384544932646471
-0,380469329849507
-0,376287671048874
-0,372098235633871
-0,367999286263212
-0,36408337471118
-0,360431830310242
-0,357109834220392
-0,354162446111294
-0,35161188252681
-0,349456253491492
-0,347669853312017
-0,346204982285467
-0,344995158151096
-0,343959469674214
-0,343007738729825
-0,342046099051028
-0,3409825742064
-0,339732246503372
-0,338221651235279
-0,336392103124246
-0,334201757281733
-0,331626317022356
-0,328658415549051
-0,325305807866937
-0,32158860363825
-0,317535843102303
-0,313181760667178
-0,308562091192172
-0,303710752022678
-0,298657182275265
-0,293424545021247
-0,288028905481172
-0,282479398016078
-0,276779296171319
-0,270927812516728
-0,264922386591884
-0,258761176069591
-0,252445452002638
-0,24598161462138
-0,239382589686706
-0,232668432331025
-0,225866048922205
-0,219008039520794
-0,212130755010605
-0,205271745141478
-0,198466838633222
-0,191747137976858
-0,185136225700478
-0,178647864312358
-0,172284430302229
-0,166036257421688
-0,159881982099929
-0,153789892019483
-0,147720186128054
-0,141627969344311
-0,135466735791091
-0,129192046989504
-0,122765090414223
-0,116155811091269
-0,109345343829595
-0,102327533057171
-0,095109405687127
-0,0877105529043435
-0,0801614711282016
-0,0725010022515489
-0,0647730906697304
-0,0570231327834114
-0,0492942286427076
-0,0416236523414452
-0,034039837334728
-0,0265601270476653
-0,01918947425124
-0,0119201907345945
-0,00473275911826153
0,00240237089790752
0,00952216123685734
0,0166677653472507
0,0238809820701288
0,031200678759095
0,03865947596401
0,0462809582646245
0,0540776262595776
0,0620497380309167
0,0701851106913058
0,0784598708981356
0,0868400645256812
0,0952839668141195
0,10374488085119
0,112174178436798
0,120524325549248
0,128751645180615
0,136818601616598
0,144695438999475
0,152361068380953
0,159803165784348
0,16701751282945
0,174006675243457
0,18077816771229
0,187342291802526
0,193709854291909
0,199889975130942
0,205888177926198
0,211704923537862
0,217334702546462
0,222765749485971
0,227980385823791
0,232955944760534
0,237666183610454
0,242083052707698
0,246178666061232
0,249927309800346
0,253307329762201
0,256302758029647
0,258904567390812
0,261111479248036
0,262930290657307
0,264375726083641
0,265469855483815
0,266241149523902
0,266723262994686
0,266953647710961
0,266972096405701
0,266819310318915
0,266535567221351
0,266159545913537
0,265727340569902
0,265271676341863
0,264821318835179
0,264400656233664
0,26402942507192
0,263722549197116
0,263490065752466
0,263337120755476
0,263264028219199
0,263266398641775
0,263335352933805
0,263457844563726
0,263617114461463
0,263793299313212
0,263964204304778
0,264106236956441
0,264195480927591
0,2642088696149
0,264125401339207
0,263927323309741
0,263601202502413
0,263138799702066
0,262537669177792
0,261801420833087
0,260939603405857
0,259967194702242
0,258903715625418
0,257772016057401
0,256596809507459
0,255403056950479
0,254214316013409
0,253051177851848
0,251929909816865
0,25086140745403
0,249850535632331
0,248895907689135
0,247990116143479
0,247120391991689
0,24626963517756
0,245417729689305
0,244543035514177
0,243623938255682
0,242640336491613
0,241574956817764
0,240414405790702
0,239149894622279
0,237777603718342
0,236298686838822
0,234718945591054
0,233048231134433
0,23129964901236
0,229488653302435
0,227632117161557
0,225747458688447
0,223851885182365
0,22196179742632
0,22009237129538
0,218257309666712
0,216468736193396
0,214737186452295
0,213071643107625
0,211479560983551
0,209966835326028
0,208537681022781
0,207194410339794
0,205937119299659
0,204763315291578
0,20366753795239
0,202641039097056
0,201671593460122
0,200743508963571
0,19983789290307
0,198933209615042
0,198006137657895
0,197032702899044
0,195989631357184
0,194855835677205
0,193613925050713
0,192251613204923
0,190762894895634
0,189148869351097
0,187418109278931
0,18558650522986
0,183676554917676
0,181716112349385
0,17973665835007
0,177771198127757
0,175851928780568
0,174007846485396
0,172262476706664
0,170631909467493
0,169123305075975
0,16773400469137
0,166451336946252
0,165253159877157
0,164109120845781
0,162982560592321
0,161832935789151
0,160618591844826
0,15929968785661
0,157841061157493
0,156214821122897
0,15440248072149
0,152396468206422
0,150200907614511
0,147831611567931
0,145315288814638
0,142688027192241
0,139993165588106
0,137278711841458
0,134594494027015
0,13198924800914
0,12950784363679
0,127188835888496
0,125062497387986
0,123149447825796
0,121459947543942
0,119993871077635
0,118741326007264
0,11768383714424
0,116795979256128
0,116047315838893
0,115404488382517
0,11483330052333
0,11430065370151
0,113776213630613
0,11323371751211
0,112651867302078
0,11201479115443
0,111312090118939
0,110538517387707
0,109693360601247
0,10877961247947
0,107803020803681
0,106771105844901
0,105692222909301
0,104574731492694
0,103426312870441
0,102253457138387
0,101061121101236
0,0998525419199858
0,0986291795775396
0,0973907547826553
0,0961353480840977
0,0948595301253696
0,0935585010706173
0,0922262277395843
0,0908555781733318
0,0894384635151864
0,0879660046607202
0,0864287450519766
0,0848169305574815
0,083120872624544
0,0813314022802216
0,0794404111562312
0,0774414629026948
0,0753304457343864
0,0731062260175459
0,0707712552079474
0,0683320791120188
0,0657997000262509
0,0631897487935805
0,0605224347696431
0,0578222560826712
0,0551174690378434
0,0524393324975242
0,0498211588796324
0,0472972166344046
0,0449015384408915
0,0426666942010926
0,040622587941772
0,0387953332454178
0,0372062535848825
0,0358710430531659
0,0347991108278565
0,033993120699735
0,0334487264468217
0,0331544957494611
0,0330920103818357
0,0332361287280236
0,033555397927321
0,0340126064242124
0,0345654722577887
0,0351674668267733
0,035768776798609
0,0363174071739538
0,0367604254749825
0,0370453402512148
0,0371215967696098
0,0369421596119511
0,0364651371613804
0,0356553882041561
0,0344860379155168
0,0329398211626595
0,0310101669549263
0,0287019402541707
0,0260317668965906
0,0230278840902782
0,0197294821542806
0,0161855314879489
0,012453120226898
0,00859536033795241
0,00467895038783713
0,000771509389869308
-0,00306118430860037
-0,00675790401492523
-0,0102644888860279
-0,0135360230279312
-0,0165385590575523
-0,0192502918205523
-0,0216621205083547
-0,0237775739724354
-0,0256121119263742
-0,0271918512341886
-0,0285517990311593
-0,0297337008706638
-0,0307836307941256
-0,031749460276067
-0,0326783441090271
-0,0336143539793852
-0,03459637573155
-0,0356563656753158
-0,0368180365739223
-0,0380960170589571
-0,0394955010760528
-0,0410123781883522
-0,042633812528286
-0,0443392188359484
-0,046101568900013
-0,047888950994714
-0,0496662984606501
-0,0513972010265369
-0,0530457133778625
-0,0545780793214735
-0,0559642962778915
-0,0571794533817517
-0,0582047870173897
-0,0590284099834122
-0,0596456846065097
-0,0600592258621082
-0,0602785376369604
-0,0603193032845533
-0,0602023698542647
-0,0599524829277553
-0,0595968447519413
-0,0591635810240331
-0,0586802100271432
-0,0581722106493058
-0,0576617823083877
-0,0571668794979952
-0,0567005866693561
-0,0562708762110338
-0,0558807647076184
-0,0555288523958594
-0,0552102001043401
-0,054917469596952
-0,0546422297324959
-0,054376314559178
-0,05411311226881
-0,0538486669582763
-0,053582488661582
-0,0533179903906063
-0,053062502299721
-0,0528268500450686
-0,0526245237722502
-0,052470502412656
-0,0523798315207595
-0,0523660784873553
-0,0524398039923954
-0,0526071913113109
-0,0528689650039994
-0,0532197081740228
-0,0536476547565251
-0,0541349929504438
-0,0546586716467878
-0,0551916575145982
-0,0557045504523574
-0,0561674331438699
-0,0565518094981684
-0,0568324788483984
-0,0569891986535362
-0,0570080076020272
-0,0568821115628741
-0,0566122739039302
-0,056206695503389
-0,0556804141730795
-0,0550542939622648
-0,0543537080770483
-0,0536070418982592
-0,0528441527920545
-0,0520949203313651
-0,0513880047764631
-0,0507499049816095
-0,0502043722035476
-0,0497721971504675
-0,0494713480709429
-0,0493174016501956
-0,0493241795388086
-0,0495044842248809
-0,0498708204105569
-0,0504359926430296
-0,0512134859487877
-0,05221756187178
-0,053463034856536
-0,0549647299830906
-0,0567366589901119
-0,0587909837245505
-0,0611368614682254
-0,0637792826122995
-0,0667180163225804
-0,0699467738377689
-0,073452682440858
-0,0772161376476378
-0,0812110692093859
-0,085405621115651
-0,0897632102372893
-0,0942438956984414
-0,0988059644682656
-0,103407620225777
-0,108008653814102
-0,112571975132014
-0,117064897857302
-0,121460088775799
-0,125736120845976
-0,129877601087827
-0,133874878207877
-0,13772336783181
-0,141422562644547
-0,14497481842073
-0,148384023131979
-0,151654263899331
-0,154788605186566
-0,157788081525054
-0,16065099016721
-0,163372544872313
-0,165944923344657
-0,168357709915744
-0,170598704028921
-0,172655036242067
-0,174514508778789
-0,176167058818635
-0,177606231047847
-0,178830542229616
-0,179844625019702
-0,180660050645773
-0,181295749624283
-0,181777975179874
-0,182139783808301
-0,182420039587659
-0,182661981320189
-0,182911422190199
-0,183214678378984
-0,183616344068341
-0,184157044047645
-0,184871300641884
-0,185785648338026
-0,186917117393287
-0,188272187443897
-0,189846284898092
-0,191623865410184
-0,193579086995856
-0,195677042811844
-0,197875487623663
-0,200126960954964
-0,20238118499403
-0,204587598177401
-0,206697877303147
-0,20866830247221
-0,210461830139939
-0,212049759198028
-0,213412901957025
-0,214542204210906
-0,215438793937335
-0,21611347416122
-0,216585709530252
-0,216882185956157
-0,217035046252514
-0,217079920629543
-0,217053878319628
-0,216993425282533
-0,216932663394683
-0,216901709739998
-0,216925452215674
-0,217022691494325
-0,217205691560789
-0,217480133706962
-0,217845443878684
-0,218295442382304
-0,218819249292675
-0,219402369221141
-0,220027875586229
-0,220677616806098
-0,221333374209832
-0,221977912707596
-0,222595879143303
-0,223174518261042
-0,22370419100209
-0,224178693267769
-0,224595384328514
-0,224955142288759
-0,225262169096879
-0,225523669817624
-0,225749430626847
-0,225951317983437
-0,226142718499414
-0,226337935963546
-0,226551559536356
-0,226797815831606
-0,227089917751326
-0,227439424510443
-0,2278556300212
-0,228345000126653
-0,228910682450238
-0,229552115003627
-0,230264760470721
-0,231039991662772
-0,23186514957759
-0,23272378879577
-0,233596115785298
-0,234459614692731
-0,235289843188328
-0,236061368968556
-0,236748806734528
-0,237327906919537
-0,237776642074374
-0,238076235240683
-0,238212077143705
-0,238174485409058
-0,237959268775301
-0,237568071453911
-0,237008486225792
-0,236293938292394
-0,235443353970896
-0,234480638018928
-0,233433989817482
-0,232335091539974
-0,231218200840337
-0,230119177093655
-0,229074464780224
-0,228120051493279
-0,227290412629837
-0,226617451388729
-0,226129442334187
-0,22584999000851
-0,225797021030923
-0,22598183810636
-0,226408276245978
-0,227072013517275
-0,227960098684665
-0,229050764034507
-0,230313591386305
-0,231710091241596
-0,233194738263996
-0,234716480859421
-0,2362207095267
-0,237651629971284
-0,238954945669926
-0,240080714369546
-0,240986207965361
-0,241638579414029
-0,242017127469637
-0,242114952835443
-0,241939819440346
-0,241514072023961
-0,240873514541653
-0,240065219968485
-0,239144316297931
-0,238169870336984
-0,237200063986388
-0,236286920829024
-0,235470888242021
-0,234775607259957
-0,234203206005988
-0,233730431579889
-0,233305890858915
-0,232848605928912
-0,232248009789506
-0,231365419084876
-0,230036930235371
-0,228077601014924
-0,225286708355235
-0,221453820691465
-0,216365393476037
-0,209811591278148
-0,201593058450982
-0,191527399544944
-0,179455185323177
-0,165245363504783
-0,148800017618165
-0,130058474727545
-0,109000806336836
-0,0856507909652124
-0,0600784084867377
-0,03240191469933
-0,00278950201403069
0,0285395064466745
0,0613140493276174
0,09521149305007
0,129858815226135
0,16483508660234
0,199675541978244
0,233877505821041
0,266908376510585
0,29821577480344
0,327239831600927
0,353427435401454
0,376248092197223
0,39521088348387
0,409881856351856
0,419901057961314
0,424998348427209
0,425007101846797
0,419874941689639
0,409670756186785
0,39458739878226
0,374939690094073
0,351157588473685
0,323774669642972
0,293412332910647
0,260760411963171
0,22655509249599
0,191555209594951
0,15651810093125
0,12217621865687
0,0892156502239158
0,0582575691073337
0,0298434395793958
0,00442454946738524
-0,0176438402677343
-0,0361037390107849
-0,0507913629044766
-0,0616303238225364
-0,0686218408975492
-0,0718328906571991
-0,0713832837653025
-0,0674326505913702
-0,0601682369442263
-0,0497942640319317
-0,0365234070384797
-0,0205707126786266
-0,00215002826524946
0,0185272255029456
0,0412513183799628
0,065812058749931
0,0919958826606306
0,119582882618909
0,148344448831822
0,178042104783968
0,208427973065268
0,239247120529078
0,270241821592356
0,301157564344261
0,331750425470183
0,361795274859696
0,391094153872764
0,419484113022472
0,446843800531503
0,473098162366362
0,498220741077318
0,52223323425043
0,545202178834269
0,567232847733061
0,588460661445407
0,609040612235192
0,629135355560944
0,648902730607636
0,668483520668511
0,687990251395957
0,707497752465768
0,727036082498169
0,746586248912544
0,766078957614273
0,785396417735915
0,804377020425428
0,822822523279491
0,840507217019166
0,857188438676716
0,872617732657537
0,886551950064971
0,898763616025064
0,909049979114623
0,917240277851306
0,923200905648352
0,926838315673625
0,928099668066742
0,926971372341383
0,923475807277249
0,917666601235144
0,909622922329317
0,899443257863144
0,887239156315514
0,873129365990854
0,857234737410262
0,839674168416711
0,820561769593786
0,800005321036507
0,778105987679166
0,754959166341683
0,73065625926516
0,705287110636237
0,678942807085326
0,651718531509195
0,623716171141973
0,595046413536933
0,565830114673639
0,536198787507935
0,506294131955231
0,476266603295031
0,446273090052107
0,41647383950697
0,387028824823932
0,358093788704131
0,329816222021087
0,30233154064308
0,275759709532893
0,250202531370214
0,225741769694794
0,202438217384573
0,180331754385755
0,159442368869786
0,13977204847845
0,121307388054033
0,104022711692325
0,0878834738343728
0,0728496889741647
0,0588791436128448
0,0459301670924041
0,033963778159943
0,022945078382585
0,012843827610737
0,00363420544776407
-0,00470616947725131
-0,0121978291410202
-0,0188614713803371
-0,0247201830225608
-0,0298016371553893
-0,0341400345467205
-0,0377775823974885
-0,0407653442736047
-0,0431633496996007
-0,0450399159083062
-0,0464702021905439
-0,0475340833696371
-0,0483134876170919
-0,0488893901323188
-0,0493386843643442
-0,0497311639691712
-0,0501268408155221
-0,0505737979267558
-0,0511067337028942
-0,05174629895347
-0,052499265903339
-0,0533595038419743
-0,0543096748480337
-0,0553235101323029
-0,0563684871782408
-0,0574087031459929
-0,058407732506836
-0,0593312667943761
-0,060149360267639
-0,0608381445789022
-0,0613809243982379
-0,0617686200157912
-0,0619995774566678
-0,0620788170382826
-0,0620168334510878
-0,0618280912305039
-0,0615293766190182
-0,0611381695788417
-0,0606711882702134
-0,0601432343583954
-0,0595664334346865
-0,058949924014448
-0,0583000045981234
-0,0576207050635119
-0,0569147096897944
-0,056184527579486
-0,0554337844598165
-0,0546684993394247
-0,0538982107629528
-0,0531368300839794
-0,0524031218738365
-0,0517207423633907
-0,0511178030008266
-0,0506259649755485
-0,0502791088147484
-0,0501116581445563
-0,0501566657394183
-0,0504437911778198
-0,0509973111810615
-0,051834305471855
-0,0529631525772497
-0,0543824521968298
-0,0560804647633057
-0,058035126519111
-0,060214661910944
-0,0625787768908528
-0,0650803792364214
-0,0676677377161165
-0,0702869630380191
-0,0728846718925819
-0,0754106823579166
-0,0778205853972663
-0,0800780433127826
-0,0821566814983522
-0,084041463649284
-0,0857294713115897
-0,0872300442351474
-0,0885642762873103
-0,0897639001164486
-0,090869629950747
-0,0919290634464521
-0,0929942684143053
-0,0941191968555991
-0,0953570760859914
-0,0967579243284009
-0,098366326343662
-0,100219584339765
-0,102346332093501
-0,104765667944666
-0,107486827462444
-0,110509381623868
-0,113823913812121
-0,117413101097237
-0,121253103995006
-0,125315155506043
-0,129567235477616
-0,133975720115594
-0,138506908193976
-0,14312834378854
-0,147809878481522
-0,152524441701494
-0,157248514007699
-0,161962322368069
-0,166649796905949
-0,17129834358249
-0,175898495850026
-0,18044351002092
-0,184928964218329
-0,189352410113162
-0,193713111601867
-0,19801188681391
-0,20225105132163
-0,206434443065434
-0,210567495098292
-0,214657312197556
-0,218712702729397
-0,222744118253873
-0,22676346015574
-0,230783724369457
-0,234818470925809
-0,238881123059112
-0,24298411931466
-0,247137959730009
-0,251350202104111
-0,255624475275026
-0,259959582168563
-0,264348765646361
-0,268779204777241
-0,273231798460575
-0,277681278175043
-0,282096673068663
-0,286442130015117
-0,290678070013705
-0,294762641809905
-0,298653415082775
-0,302309240095013
-0,305692189017285
-0,308769486840508
-0,311515337005801
-0,313912548679334
-0,315953878695141
-0,317643011285751
-0,318995112292805
-0,320036911113149
-0,320806282624244
-0,321351322147314
-0,321728928536112
-0,322002933067458
-0,322241834189112
-0,322516219505075
-0,32289597574843
-0,323447403795145
-0,324230367977928
-0,325295615923673
-0,326682405889534
-0,328416572249371
-0,330509145932239
-0,332955625067002
-0,335735962316803
-0,338815300289908
-0,342145446599828
-0,345667037655483
-0,349312297656326
-0,353008259373937
-0,35668027908167
-0,360255652238945
-0,363667121763319
-0,366856068727296
-0,369775187193096
-0,372390470717657
-0,374682376830651
-0,376646085509933
-0,378290825346133
-0,379638302869872
-0,380720332163622
-0,381575818748824
-0,382247299494694
-0,382777274973729
-0,383204589275561
-0,383561112765322
-0,383868965158068
-0,384138480295793
-0,384367062517671
-0,3845390210272
-0,384626397830808
-0,384590731884629
-0,384385632758129
-0,383959976712688
-0,383261491485934
-0,382240467056587
-0,380853320625255
-0,379065755854924
-0,37685528822836
-0,374212957709267
-0,371144112799809
-0,367668221547913
-0,363817739238165
-0,359636133444889
-0,355175229035388
-0,350492083716088
-0,345645634936354
-0,340693369267119
-0,335688255189085
-0,330676150804487
-0,325693852204206
-0,320767890415799
-0,315914120171743
-0,311138078027656
-0,306436026387737
-0,301796548869542
-0,297202525477873
-0,292633296011196
-0,288066818150911
-0,283481642272534
-0,278858555995352
-0,27418179417977
-0,269439759959175
-0,264625254185401
-0,259735259152238
-0,25477036290175
-0,249733938959894
-0,244631210572613
-0,239468327450007
-0,234251567442466
-0,228986747739856
-0,223678893676363
-0,218332172483066
-0,212950059340282
-0,207535668516409
-0,202092157463403
-0,196623099513964
-0,191132722868625
-0,185625929887265
-0,180108039643753
-0,174584235056284
-0,169058739342093
-0,163533790048769
-0,158008517114946
-0,15247785963072
-0,146931670138974
-0,141354153014817
-0,135723763875781
-0,130013661132194
-0,124192751593399
-0,11822731395677
-0,112083122599931
-0,105727935615475
-0,0991341617252464
-0,0922814860488334
-0,0851592191508985
-0,0777681397940789
-0,0701216300681738
-0,0622459503318508
-0,0541795670977559
-0,0459715240955792
-0,0376789285807494
-0,0293637041053932
-0,0210888300690197
-0,0129143408382147
-0,00489338780818137
0,0029313267913704
0,0105304564059676
0,0178900148015144
0,0250123038150044
0,0319156721148423
0,0386331046096397
0,0452097348408887
0,0516994584266207
0,0581608970742266
0,0646530138013521
0,0712307066305705
0,0779407080458989
0,0848180912837908
0,0918836345804319
0,0991422253840876
0,10658240436891
0,114177060874563
0,121885204562309
0,129654659577144
0,137425463453985
0,145133707983147
0,152715536093482
0,160111008368561
0,167267574069226
0,174142921613048
0,180707038261782
0,186943373103858
0,192849065743114
0,198434269953225
0,203720661970878
0,208739273048339
0,213527822574445
0,218127749922757
0,222581150014786
0,226927810345247
0,231202527815377
0,235432854750358
0,239637387906681
0,243824675064617
0,247992773788523
0,252129458511624
0,256213037108104
0,260213707914303
0,264095363531578
0,267817729039236
0,27133870954641
0,274616815186134
0,277613530501454
0,280295499548679
0,282636407788362
0,284618456841849
0,286233348317316
0,287482717808622
0,288377989309421
0,288939652696419
0,289196001291533
0,289181400984398
0,288934194859615
0,288494375248304
0,287901176183253
0,287190751054346
0,286394101011206
0,285535408204508
0,284630904064164
0,283688367380731
0,282707301902469
0,281679791550492
0,28059197702901
0,279426045047886
0,278162575184478
0,276783054035122
0,275272345407848
0,273620901567287
0,271826515153267
0,26989544397316
0,267842789375215
0,265692069696581
0,263473998449213
0,261224546655741
0,258982433856457
0,256786246809749
0,254671423544809
0,252667359216413
0,250794886944866
0,249064361116757
0,247474524286682
0,24601227546159
0,244653382492594
0,243364101029571
0,242103584070284
0,240826896571398
0,239488395249602
0,238045199554607
0,236460469143419
0,234706217164765
0,232765426212372
0,230633291755202
0,228317491128072
0,22583745835619
0,223222728921897
0,220510496656846
0,217742590424825
0,214962125383346
0,212210108377953
0,209522277406845
0,206926431293093
0,204440460074114
0,202071223495114
0,199814350172442
0,197654950288177
0,195569157256678
0,193526345477623
0,191491817982241
0,189429723915968
0,187305953997494
0,185090772868929
0,182760979095556
0,18030143304839
0,177705855057604
0,174976865014361
0,172125303541654
0,169168937575183
0,166130704071404
0,16303668015155
0,159913983590696
0,156788803225275
0,153684735557485
0,150621564434004
0,147614569346963
0,144674390039939
0,141807416476667
0,139016619694893
0,136302695791613
0,133665366384822
0,131104667003416
0,128622060895515
0,126221238840647
0,123908503159006
0,121692682279487
0,11958457593926
0,117595984813789
0,115738426634314
0,114021678636006
0,112452309571987
0,111032371044591
0,109758406664203
0,108620909514231
0,107604316150482
0,106687572960411
0,105845253201125
0,105049146175429
0,104270189350001
0,103480575062741
0,102655839808564
0,101776738693381
0,100830721381245
0,0998128578914396
0,0987261101798407
0,097580904387466
0,0963940234694236
0,0951869046392016
0,093983484341149
0,0928077797580069
0,0916814253497606
0,0906213925300954
0,0896381089388979
0,0887341615125261
0,0879037172890531
0,0871327319790522
0,0863999444660323
0,0856785821722289
0,0849386344314942
0,0841494950519616
0,0832827365953781
0,0823147613978333
0,0812290800513859
0,0800179968388566
0,0786835311586475
0,0772374702012311
0,0757005251446554
0,0741006441360017
0,0724706130274316
0,0708451420838031
0,0692576875420876
0,0677372861395813
0,0663056856898028
0,0649750347086666
0,0637463505033394
0,0626089216426242
0,0615407226900487
0,0605098332807564
0,0594767673813223
0,0583975394380069
0,0572272289261914
0,0559237591554468
0,0544515841292397
0,0527849805899753
0,0509106708951998
0,0488295536719374
0,046557388871987
0,0441243661467735
0,0415735734613252
0,0389584693646197
0,0363395402775908
0,0337803873346819
0,0313435308160978
0,029086240801251
0,027056699113726
0,0252907705373759
0,0238096133097145
0,022618294185368
0,0217054972886024
0,0210443347826785
0,0205941873644062
0,0203034298865055
0,0201128373468768
0,0199594231647962
0,0197804378532807
0,019517252955243
0,0191188719399601
0,0185448446262648
0,0177674112795606
0,0167727625632257
0,0155613671473072
0,0141473848795594
0,0125572452372275
0,0108275239687283
0,00900229196259857
0,00713013718723692
0,00526107173130617
0,00344353174322303
0,00172165944518835
0,000133025676037419
-0,00129308857741531
-0,00253677896619671
-0,00358794812749466
-0,00444610135900822
-0,00511957119376516
-0,00562426885043463
-0,00598208552850175
-0,00621908085737752
-0,00636359920530725
-0,00644444743870671
-0,00648925140679231
-0,00652308465905805
-0,00656743409234955
-0,00663953582477144
-0,00675208326017603
-0,00691328048063063
-0,00712718983818002
-0,00739430466157477
-0,00771226728883513
-0,00807664969116649
-0,00848171844903263
-0,00892111699483557
-0,00938841444741919
-0,00987749024836472
-0,0103827452149796
-0,0108991504360471
-0,0114221637009567
-0,0119475572396584
-0,0124712091014808
-0,0129889129165964
-0,0134962567668501
-0,0139886120636002
-0,0144612585683267
-0,0149096535780897
-0,0153298336659201
-0,0157189181437857
-0,0160756667455232
-0,0164010315716252
-0,0166986366856212
-0,0169751187252954
-0,0172402689079579
-0,0175069304892655
-0,0177906251182988
-0,0181089050604904
-0,0184804539114417
-0,0189239838846492
-0,0194570006656532
-0,0200945248583676
-0,0208478703341462
-0,0217235828988805
-0,0227226368736531
-0,0238399725190234
-0,025064434493218
-0,0263791423530062
-0,0277622906330335
-0,0291883410227684
-0,0306295354809852
-0,0320576297392105
-0,0334457242274603
-0,0347700561889095
-0,0360116141060106
-0,0371574441988263
-0,0382015383077073
-0,0391452217761412
-0,0399969967938922
-0,0407718383344289
-0,0414899829278593
-0,0421752916020846
-0,0428533039281135
-0,0435491271329462
-0,0442853203221323
-0,0450799373606119
-0,0459448824038404
-0,0468847099570292
-0,0478959683017717
-0,0489671436980653
-0,0500792162523805
-0,0512067904995005
-0,0523197185067463
-0,0533850944369615
-0,054369470229548
-0,0552411248600515
-0,0559722159654887
-0,0565406527757062
-0,0569315524432738
-0,0571381759602815
-0,0571622820840158
-0,0570138843444195
-0,0567104433677745
-0,0562755704192865
-0,055737354534442
-0,0551264519432559
-0,054474090577466
-0,0538101433409187
-0,0531614117670235
-0,052550238054549
-0,0519935306806613
-0,0515022500430453
-0,0510813595161108
-0,0507302077783479
-0,0504432737687825
-0,0502111792082409
-0,0500218573960581
-0,0498617620813784
-0,049717006580081
-0,0495743398500058
-0,049421890864322
-0,0492496424675166
-0,0490496277388878
-0,0488158723110918
-0,0485441319981638
-0,048231493927474
-0,0478759194046738
-0,0474758072407462
-0,0470296475485058
-0,0465358193661902
-0,0459925630641691
-0,0453981330619141
-0,0447511109744075
-0,0440508369031066
-0,0432978997876143
-0,0424946184987214
-0,0416454447180613
-0,0407572267157299
-0,0398392889214545
-0,0389033039069701
-0,037962958473354
-0,0370334410375305
-0,0361308004282452
-0,0352712436780229
-0,0344704503294328
-0,0337429816661229
-0,0331018548312103
-0,032558334640998
-0,0321219717112603
-0,0318008868342009
-0,031602271429451
-0,0315330457517758
-0,0316005935432018
-0,0318134768464198
-0,0321820296489349
-0,0327187350216676
-0,033438307197005
-0,0343574263735948
-0,0354941075470588
-0,0368667221419716
-0,0384927290074029
-0,0403872054875193
-0,0425612962653151
-0,0450207144317158
-0,0477644337298771
-0,0507837022827843
-0,0540614867090623
-0,057572423045401
-0,0612833101132352
-0,06515413556976
-0,0691395790462077
-0,0731908948098552
-0,0772580423102201
-0,0812919100836442
-0,0852464691055728
-0,0890806967628024
-0,0927601319299785
-0,0962579533686991
-0,099555515049608
-0,102642319146715
-0,10551545602604
-0,108178586088072
-0,110640576474891
-0,112913933035421
-0,115013181902439
-0,11695335442116
-0,118748714097715
-0,120411836147523
-0,121953111987764
-0,123380706146883
-0,124700946014526
-0,125919080046712
-0,127040301726053
-0,128070908512097
-0,129019449728334
-0,129897716443302
-0,130721439891599
-0,131510591669568
-0,132289216380375
-0,133084772022169
-0,13392700117118
-0,134846402401525
-0,135872412133044
-0,137031438428317
-0,138344907203027
-0,139827486168282
-0,141485641993792
-0,143316662538338
-0,145308240626869
-0,147438671767672
-0,149677669407804
-0,151987751932374
-0,154326110039495
-0,156646825192459
-0,158903282770542
-0,161050609600134
-0,163047965631467
-0,164860533564977
-0,166461076681286
-0,167830971545683
-0,168960665328564
-0,169849553311049
-0,170505316854044
-0,170942801784449
-0,171182548638152
-0,171249107048784
-0,17116927530734
-0,17097040256839
-0,170678876026392
-0,170318890610928
-0,169911566893076
-0,169474447224873
-0,169021364084496
-0,168562641472149
-0,168105563026089
-0,167655021474416
-0,167214254637316
-0,16678557375551
-0,166371000022431
-0,16597274326371
-0,165593480610624
-0,16523642004456
-0,164905160836625
-0,16460338746126
-0,164334452824516
-0,164100918907665
-0,163904126903199
-0,163743864451225
-0,163618185326878
-0,163523418276373
-0,163454378861597
-0,163404773641478
-0,163367762524567
-0,16333662528883
-0,163305464263438
-0,163269868592346
-0,163227467196477
-0,163178307354194
-0,163125012895077
-0,16307269849638
-0,163028642230989
-0,163001744583203
-0,163001825787804
-0,163038832004719
-0,163122032325427
-0,163259291522015
-0,163456497247804
-0,163717205473665
-0,16404254566788
-0,164431399746985
-0,164880838915357
-0,165386773335606
-0,165944744223117
-0,16655076933126
-0,167202143083251
-0,167898093174878
-0,168640206696917
-0,16943255982043
-0,170281514115825
-0,171195176801757
-0,172182558261256
-0,173252494324117
-0,17441242938225
-0,175667176232732
-0,177017777173576
-0,178460587044332
-0,179986682505158
-0,181581674203734
-0,183225962018409
-0,184895431869307
-0,186562549771763
-0,188197769332292
-0,189771137019505
-0,191253958757011
-0,192620384294552
-0,193848773415959
-0,194922729996594
-0,195831724178693
-0,196571266108155
-0,197142642297069
-0,197552272573134
-0,197810786503538
-0,197931948355971
-0,197931575207886
-0,197826591438402
-0,197634343894105
-0,197372266849551
-0,197057937695344
-0,196709507855362
-0,19634643476785
-0,195990386385797
-0,195666146086812
-0,195402318774076
-0,195231632608769
-0,195190647523076
-0,195318721477391
-0,195656145902473
-0,196241438253581
-0,197107865470134
-0,198279359397154
-0,19976606535561
-0,201559829682199
-0,203629973983369
-0,205919717643637
-0,208343592900787
-0,210786148490082
-0,213102161384792
-0,215118477275908
-0,216637487222621
-0,217442130079442
-0,217302198366908
-0,215981629385884
-0,213246392562785
-0,208872545044573
-0,202654024303421
-0,194409779550153
-0,183989910069808
-0,171280571978344
-0,156207526279118
-0,138738319515326
-0,118883201853455
-0,096694984470123
-0,0722681083970741
-0,045737232786382
-0,01727564750719
0,0129062274099512
0,0445620710759266
0,0774105416761719
0,111135852552345
0,14538821776383
0,179784458029475
0,213909151207365
0,247316767807663
0,279535241931362
0,310071385837664
0,338418461286683
0,364066077175956
0,386512400039207
0,405278455365133
0,419924080425146
0,430064882305929
0,435389377477386
0,435675359386714
0,430804473189874
0,420773982180211
0,405704793554231
0,385844970376991
0,361568184006786
0,333366842972306
0,301839951284979
0,267676078890166
0,231632144847083
0,194508995543909
0,157124983439834
0,120288898288976
0,0847736597716135
0,0512921420109563
0,0204763679910588
-0,00713890586728905
-0,031127482237928
-0,0511774960442982
-0,0670916316936767
-0,0787821045708459
-0,0862610537597184
-0,0896272655109468
-0,0890503452912302
-0,0847535664096168
-0,0769966383071419
-0,0660595583910815
-0,0522285461198121
-0,0357848220424862
-0,0169967082990982
0,0038847847610637
0,0266270325592975
0,0510139626769807
0,0768419811220356
0,10391449348628
0,132035942786801
0,161006286162967
0,190616748289699
0,220647529439166
0,250867925776374
0,28103905910933
0,310919136396805
0,340270890610045
0,36887061775708
0,396518040884523
0,42304611673556
0,448329864576364
0,472293342706886
0,494914022513989
0,516224002126451
0,536307745471878
0,555296307387181
0,573358288198561
0,590688028300948
0,607491782551006
0,623972786739754
0,640316230038382
0,656675169918286
0,673158368094847
0,689820892525543
0,706658132537645
0,7236036279704
0,740530838655861
0,757258699437214
0,773560540318668
0,789175721467262
0,803823155875514
0,81721578089824
0,829075000727541
0,839144156172033
0,847200181166467
0,853062767207518
0,85660056296901
0,857734169362278
0,856435931246611
0,852726757013487
0,846670399006305
0,83836578674116
0,827938110747042
0,815529401671345
0,801289336286565
0,785366933139226
0,767903684000393
0,749028514835094
0,728854795615522
0,707479437279621
0,684983941316313
0,661437116501021
0,636899059287391
0,611425917087732
0,585074921265585
0,557909189211112
0,530001848764807
0,501439126573855
0,472322155270956
0,442767381517346
0,412905586320296
0,382879649304168
0,352841289845667
0,322947092526845
0,293354167076107
0,264215802011285
0,235677447585571
0,207873311418328
0,180923775616358
0,154933755350149
0,129992024656011
0,106171444685791
0,0835299510096845
0,0621120966306509
0,0419509108903558
0,0230698237541576
0,00548441993780848
-0,0107961745963238
-0,0257684147714348
-0,0394340394318864
-0,0518003538700876
-0,0628810191079535
-0,0726972133075672
-0,081278984011492
-0,0886665828144913
-0,0949115687324589
-0,10007748320636
-0,104239936326935
-0,107485996770519
-0,109912841780202
-0,11162569214192
-0,112735124002975
-0,113353908281839
-0,113593574013604
-0,113560920195774
-0,11335470925197
-0,11306276357012
-0,112759656125186
-0,112505139971392
-0,112343403826397
-0,112303177317157
-0,112398645496716
-0,112631073476373
-0,112990993358142
-0,113460770967908
-0,114017351586648
-0,114634982802607
-0,115287728115978
-0,115951614759483
-0,116606300063991
-0,117236188349901
-0,117830980203495
-0,118385683540322
-0,118900157020018
-0,119378287865008
-0,119826925898023
-0,120254702665044
-0,120670859240755
-0,121084190252132
-0,121502187202933
-0,121930434440411
-0,122372279439647
-0,122828768825394
-0,123298815587483
-0,123779543565728
-0,124266743890453
-0,124755375085404
-0,125240043553868
-0,125715412835355
-0,12617650646729
-0,126618888123634
-0,127038721635628
-0,127432730125038
-0,127798086106216
-0,128132271665987
-0,128432949229751
-0,128697879104761
-0,12892491086204
-0,129112062985659
-0,129257690945977
-0,129360729752617
-0,129420984945932
-0,129439437429653
-0,129418523513293
-0,129362352530439
-0,129276830236535
-0,129169666114116
-0,1290502555062
-0,128929441545538
-0,128819175464625
-0,128732105361194
-0,128681131488943
-0,128678969624357
-0,128737762627138
-0,128868774056795
-0,129082187406781
-0,129387021318724
-0,129791156658764
-0,130301457258491
-0,130923954185346
-0,131664055065915
-0,132526736328342
-0,133516677810159
-0,134638305935657
-0,135895722956159
-0,137292514393061
-0,138831443194121
-0,140514055403222
-0,142340236452382
-0,144307767832451
-0,146411939498399
-0,148645273163539
-0,150997405337209
-0,15345516708422
-0,156002881003128
-0,158622876462343
-0,161296203508376
-0,16400350621386
-0,166725999452383
-0,169446480954363
-0,172150304203288
-0,17482623800629
-0,177467145383267
-0,180070427173195
-0,182638193233502
-0,18517714465277
-0,187698172101193
-0,19021569628771
-0,192746794661963
-0,195310172438038
-0,197925044694308
-0,200609999221131
-0,203381907078744
-0,20625494012051
-0,209239743192485
-0,212342794759809
-0,215565974886725
-0,218906345356382
-0,222356134522406
-0,225902910203189
-0,229529917978997
-0,233216559708174
-0,236938987384876
-0,240670789868746
-0,244383753408553
-0,24804868015952
-0,251636251003104
-0,255117919153552
-0,258466818873652
-0,261658669172299
-0,264672646168288
-0,267492190759569
-0,270105711636924
-0,272507138877734
-0,27469628173148
-0,276678946864876
-0,278466781063111
-0,280076815287062
-0,281530704695991
-0,28285368068903
-0,284073254493253
-0,285217735342772
-0,286314647454744
-0,287389146502773
-0,288462546022107
-0,289551065512938
-0,290664903994741
-0,291807725332228
-0,29297661549732
-0,294162538813469
-0,295351282480099
-0,296524839329947
-0,297663141156431
-0,298746022380891
-0,299755269356758
-0,300676596761084
-0,301501390879575
-0,302228070859684
-0,302862942716526
-0,30342045552377
-0,303922812275095
-0,304398936152791
-0,304882842533185
-0,305411514099063
-0,306022417035601
-0,306750827181462
-0,307627153513199
-0,308674450959995
-0,309906304660488
-0,311325244158293
-0,312921810326821
-0,314674352824629
-0,316549584929127
-0,318503869627289
-0,320485159768563
-0,322435469764763
-0,324293720022022
-0,32599877059965
-0,327492449178442
-0,328722380882436
-0,329644443453903
-0,330224699288742
-0,330440693656673
-0,330282053109177
-0,329750366313674
-0,328858377767692
-0,32762856971772
-0,326091246001287
-0,324282260974456
-0,322240555394517
-0,320005668103075
-0,317615387470527
-0,315103690577642
-0,312499092402081
-0,309823494002232
-0,307091580360358
-0,304310777955471
-0,301481742170968
-0,298599308102577
-0,295653807557174
-0,292632632133844
-0,289521908599111
-0,286308149062589
-0,28297974481187
-0,27952818847546
-0,27594893312769
-0,272241827294189
-0,268411099326948
-0,264464900745627
-0,260414453331717
-0,256272876453861
-0,252053796943601
-0,2477698619358
-0,243431284065644
-0,239044547438177
-0,234611391863223
-0,230128172627066
-0,225585664862594
-0,220969347399113
-0,216260163286069
-0,211435715729797
-0,206471821951226
-0,201344316273384
-0,196030970137491
-0,190513382769125
-0,18477869326125
-0,178820973464711
-0,172642180945819
-0,166252581231105
-0,159670586518562
-0,152922001321278
-0,146038710825436
-0,139056891679889
-0,132014863842859
-0,124950732958485
-0,117899992678094
-0,110893263656926
-0,103954339596093
-0,0970986909628815
-0,090332544983431
-0,0836526185884292
-0,0770465321913873
-0,0704938803126527
-0,0639678841893751
-0,0574375057272216
-0,050869865209988
-0,0442327802176831
-0,0374972324272649
-0,0306395733998777
-0,0236433000580871
-0,0165002637833639
-0,00921122155360804
-0,00178568962290774
0,00575888409564607
0,0133985582119278
0,0211048267371739
0,0288468793129155
0,0365940068115466
0,0443179549609047
0,0519950334658197
0,0596078088644188
0,0671462443917956
0,0746081965407722
0,0819992320111933
0,089331785745764
0,0966237360255969
0,103896521401115
0,111172962471336
0,118474975834945
0,125821375930015
0,133225952082538
0,140695983710842
0,148231318281025
0,155824087602345
0,163459082614783
0,171114749754708
0,178764718213791
0,186379721647326
0,193929744077008
0,20138620083455
0,208723963029652
0,215923048370772
0,22296983092685
0,229857664953194
0,236586869409148
0,243164075757066
0,24960099706045
0,255912726488248
0,262115713665267
0,268225594469861
0,274255061558054
0,280211958282313
0,28609775830932
0,291906559208984
0,297624673701709
0,303230851313727
0,308697110407815
0,313990110708238
0,319072953780986
0,323907267082285
0,328455408632246
0,332682625349578
0,336559008409401
0,340061112239827
0,343173137265164
0,345887616779711
0,348205591372332
0,350136295981908
0,351696421167254
0,352909038343389
0,353802296399382
0,354408003232208
0,35476020050307
0,354893824704669
0,354843524728048
0,354642678648107
0,354322623746564
0,35391208730969
0,353436784447736
0,352919135390884
0,352378049717959
0,351828729069526
0,351282452129884
0,350746324231743
0,350222996154034
0,349710379408304
0,349201405371977
0,34868388995153
0,348140571816496
0,347549389091943
0,346884046431316
0,346114902406747
0,345210178091566
0,344137454368261
0,34286539143452
0,341365572892309
0,339614352362143
0,337594565907882
0,335296970822787
0,332721281754419
0,329876698348083
0,326781853181284
0,323464151909215
0,319958525574069
0,316305663619757
0,312549840789727
0,308736487450563
0,304909677447295
0,301109717713863
0,297371018342937
0,293720400856176
0,290175967620891
0,286746609785898
0,283432178663935
0,280224290937676
0,277107686270315
0,274062011481253
0,271063872466766
0,268088976351359
0,265114183509368
0,262119302323566
0,259088487300122
0,256011140851897
0,25288226681879
0,249702275138801
0,246476287203402
0,243213035730334
0,239923487450408
0,236619338542879
0,233311539676109
0,230008999545777
0,226717593756801
0,223439572282986
0,220173416888312
0,216914153891168
0,213654081978788
0,210383833763886
0,207093657172891
0,203774781638203
0,200420726149373
0,197028412169321
0,193598963436014
0,190138104784343
0,186656110430396
0,183167294908299
0,179689083077949
0,17624073525475
0,172841835996808
0,169510677506299
0,166262679059714
0,163108981546326
0,160055341590513
0,157101424137058
0,154240558497792
0,151459983657169
0,148741567704728
0,14606294725127
0,143398998890274
0,14072352892146
0,138011051765375
0,135238522653939
0,132386896402591
0,12944240047027
0,126397435161492
0,123251044485855
0,120008934888668
0,116683052996154
0,11329076473933
0,10985370448026
0,106396382146059
0,102944647839423
0,0995241166492903
0,0961586518168187
0,0928689931704107
0,0896716014030861
0,0865777692399923
0,0835930298127056
0,0807168725735339
0,0779427592952659
0,075258418436639
0,0726463858759774
0,0700847539214745
0,0675480881125476
0,0650084718829646
0,062436641586791
0,0598031774451854
0,0570797187760938
0,0542401733085304
0,0512618902217995
0,0481267644875032
0,044822236718321
0,041342148585892
0,0376874102890761
0,0338664345605007
0,0298952926643252
0,025797552825485
0,0216037711572584
0,0173506197772913
0,0130796559453385
0,00883575889914124
0,00466528595594181
0,000614024506475272
-0,0032749605759006
-0,00696346624732047
-0,0104201478477668
-0,0136222404569615
-0,0165568795037409
-0,0192219123152391
-0,0216261194688335
-0,0237888005576187
-0,0257387211426495
-0,0275124631746268
-0,0291522667143822
-0,0307034924305159
-0,032211868618646
-0,0337207099296903
-0,0352683052059337
-0,0368856670432913
-0,0385948155821023
-0,0404077344488756
-0,0423260896586611
-0,0443417461467584
-0,0464380552953041
-0,0485918254828665
-0,0507758309724363
-0,0529616675532259
-0,0551227301648069
-0,0572370717453365
-0,0592899055170286
-0,0612755353448771
-0,0631985394068094
-0,0650740884707053
-0,0669273473955358
-0,0687919818444039
-0,0707078656664858
-0,0727181520035946
-0,0748659270381125
-0,0771907045976181
-0,0797250388696346
-0,0824915292723335
-0,0855004658351006
-0,0887483169646199
-0,0922171976824027
-0,0958753802437004
-0,099678826720093
-0,103573641202038
-0,107499264749432
-0,111392175161724
-0,115189811494893
-0,118834423490052
-0,122276550684549
-0,125477864775528
-0,12841315945075
-0,131071340419186
-0,13345534912692
-0,135581039884019
-0,137475114823455
-0,139172296969742
-0,140711982670186
-0,142134655315978
-0,143478359500147
-0,144775527018113
-0,146050414033286
-0,147317355266942
-0,148579970500232
-0,149831377292844
-0,151055378221119
-0,152228508598202
-0,153322758335583
-0,154308725389099
-0,155158922878701
-0,155850950184727
-0,156370251130356
-0,15671221842322
-0,156883459721559
-0,156902112203784
-0,156797173117703
-0,156606896811421
-0,156376387012377
-0,156154580302013
-0,15599086712624
-0,155931626261615
-0,156016955160277
-0,156277861582211
-0,156734143124806
-0,157393123928774
-0,158249347134674
-0,159285243328418
-0,160472715974729
-0,161775511088766
-0,163152176272227
-0,164559368566834
-0,165955244933333
-0,16730266542145
-0,168571957127119
-0,16974302519417
-0,170806651884302
-0,171764891476714
-0,17263054187614
-0,173425747233821
-0,174179853831897
-0,174926698444225
-0,17570155014803
-0,176537950050055
-0,17746469704893
-0,178503211882964
-0,17966547783454
-0,180952707867786
-0,182354828736735
-0,183850807778496
-0,185409782943109
-0,186992896261858
-0,188555680078234
-0,190050807715358
-0,191430998383067
-0,192651861327549
-0,193674476299012
-0,194467534891458
-0,195008907448745
-0,195286549471147
-0,195298715464175
-0,195053502531336
-0,194567796276236
-0,193865733849292
-0,192976830161756
-0,191933931150345
-0,190771161684603
-0,189522025316882
-0,18821779011876
-0,186886261587952
-0,185551003275566
-0,18423102202801
-0,182940891433418
-0,181691247936682
-0,180489562426108
-0,17934106849938
-0,178249718761177
-0,177219043023689
-0,176252796793091
-0,175355313409307
-0,174531506413089
-0,173786507034743
-0,173124961723989
-0,172550052742653
-0,172062337580957
-0,171658527385221
-0,171330338296749
-0,171063551357035
-0,170837405875938
-0,170624428718816
-0,170390769363379
-0,17009707053328
-0,169699859806585
-0,169153402613843
-0,168411915166794
-0,167432000713147
-0,166175147234404
-0,164610111508205
-0,162715014923637
-0,160478990622695
-0,157903248876835
-0,155001465910212
-0,151799448015858
-0,148334074117525
-0,144651571913543
-0,140805231347105
-0,136852700471172
-0,132853039591358
-0,128863727296793
-0,124937815297128
-0,121121417560901
-0,117451694078932
-0,113955452631388
-0,110648446297173
-0,10753539371942
-0,104610697440089
-0,101859786951999
-0,0992609713267648
-0,0967876544526039
-0,0944107462490356
-0,0921010969803217
-0,0898317888372339
-0,0875801383196828
-0,0853292923652266
-0,0830693378147703
-0,0807978842340819
-0,0785201206844581
-0,0762483843561741
-0,0740013100510293
-0,0718026520422808
-0,0696798826297698
-0,0676626743058042
-0,0657813656960083
-0,0640654968568468
-0,0625424794289971
-0,0612364443646019
-0,0601672872471842
-0,0593499114034973
-0,0587936541280111
-0,0585018730234903
-0,0584716681237917
-0,058693720809016
-0,0591522412109486
-0,0598250297722622
-0,0606836732570176
-0,061693907986202
-0,0628161907119866
-0,0640065181367208
-0,0652175281209659
-0,0663998987949834
-0,0675040367275634
-0,0684820139543209
-0,0692896789839623
-0,0698888325490949
-0,0702493291411811
-0,070350944303221
-0,070184839117768
-0,0697544600610245
-0,0690757358209189
-0,0681764728534427
-0,0670949063207825
-0,0658774291139831
-0,0645755938209149
-0,0632425543153442
-0,0619291784911648
-0,0606801143820975
-0,059530122528554
-0,058500993085669
-0,0575993438494387
-0,0568155448895982
-0,0561239386202051
-0,0554844260110073
-0,0548453772338247
-0,0541477073988953
-0,0533298454887286
-0,0523332274907731
-0,0511078730785048
-0,0496175670965123
-0,0478441683392256
-0,0457906112592281
-0,0434822501811938
-0,040966315523204
-0,0383093991865577
-0,0355930502208312
-0,0329077288367709
-0,0303455222849027
-0,0279921559219626
-0,0259189242847159
-0,0241752101868928
-0,0227822487558291
-0,0217287260520014
-0,0209686818564997
-0,0204220210446209
-0,0199777400750252
-0,0194997598358959
-0,0188350410207127
-0,0178234615779508
-0,0163087746223908
-0,014149854367248
-0,0112313876909072
-0,00747318585832557
-0,00283737492456238
0,00266713110211497
0,00898327384138355
0,0160077784858694
0,0235962849251901
0,0315713553472853
0,0397328096298888
-0,436593027962816
-0,432536812417652
-0,428643973729496
-0,425119010140709
-0,422135767872779
-0,4198272531229
-0,418278531526228
-0,417523179230539
-0,41754346299165
-0,418274131427488
-0,419609420626137
-0,421412637781461
-0,423527505514374
-0,425790340434045
-0,428042109320546
-0,430139454938303
-0,431963903848772
-0,43342864796446
-0,434482512320528
-0,435110963311524
-0,435334253166898
-0,435203017412278
-0,43479182492464
-0,434191311747827
-0,433499601884787
-0,432813728424062
-0,432221719665335
-0,431795915412019
-0,431587940274337
-0,431625598151532
-0,431911780768015
-0,432425318320368
-0,433123555501038
-0,433946321916708
-0,434820889224762
-0,43566747107364
-0,436404825351272
-0,436955556780526
-0,437250784492104
-0,437233924857248
-0,436863434807362
-0,436114455657255
