-0,00155710711554917
0,00167187619193139
0,00445874869005526
0,00672027744042153
0,00840177172120284
0,00947993903209983
0,00996344300367463
0,00989115419275871
0,00932828878355746
0,00836081307620155
0,00708863595144682
0,00561820374997091
0,0040551440210055
0,00249757427600448
0,00103060328832805
-0,000277584468960576
-0,00137784141811989
-0,0022403333918057
-0,00285313049420326
-0,00321942445502359
-0,00335380840287802
-0,00327812875182196
-0,00301743591129945
-0,00259651996506515
-0,00203742445099286
-0,00135819656791723
-0,000572970354597691
0,000306691624738257
0,00126943428378643
0,0023010946715616
0,00338149923484159
0,00448157839703994
0,00556128649503775
0,006568741999861
0,00744088005771201
0,0081057488095273
0,00848639879030335
0,00850612955065643
0,00809468880832284
0,00719488486834275
0,00576898769484969
0,00380426821584591
0,0013170638114607
-0,00164514108668366
-0,00500397448367311
-0,00865293414537529
-0,0124625789611644
-0,0162878653176842
-0,0199771316048409
-0,0233820635007151
-0,026367856596236
-0,0288227433706974
-0,0306660750479483
-0,0318542451097519
-0,0323839034580557
-0,0322921254004898
-0,0316534497287408
-0,0305739637535648
-0,02918286711571
-0,0276221680051761
-0,0260353349851834
-0,0245558292525014
-0,0232964659257145
-0,022340495698394
-0,0217351637828805
-0,0214883022947914
-0,0215682616811182
-0,0219072076472305
-0,0224075261457815
-0,0229508147125941
-0,0234087167534096
-0,0236546955023817
-0,0235757604828578
-0,0230831588230535
-0,0221211271504753
-0,0206729600289435
-0,0187638744927249
-0,0164604180899928
-0,0138664570811256
-0,0111160673652556
-0,00836390884763281
-0,00577387244835531
-0,00350693005397454
-0,00170917979450045
-0,000501057076502469
3,14217004259723E-05
-0,000157308430869558
-0,00106951121356398
-0,00266467203043016
-0,00486330161562054
-0,00755365814749383
-0,010600788707421
-0,013857108572141
-0,0171736231567671
-0,0204108615613582
-0,0234486344698988
-0,0261938477327318
-0,0285857848762341
-0,030598500372024
-0,0322402201628671
-0,0335499042055966
-0,0345913651616411
-0,0354455373377147
-0,0362016338929737
-0,0369480065778152
-0,0377635255629614
-0,0387102282542978
-0,0398278529055919
-0,0411306882723188
-0,0426069518681416
-0,0442206766254688
-0,0459158599290478
-0,0476224300667166
-0,049263430378431
-0,0507627238467213
-0,0520524882038023
-0,0530798056332175
-0,0538117474928237
-0,0542385034563924
-0,0543742916414379
-0,0542559940956984
-0,0539396713245369
-0,0534953013526363
-0,0530002460421293
-0,0525320563859882
-0,0521612801449318
-0,0519449258137828
-0,051921168337547
-0,0521057615366887
-0,0524904616563796
-0,0530435811645722
-0,0537125991868669
-0,0544285724863037
-0,0551119350802541
-0,0556791591833871
-0,0560496848732239
-0,0561525156063881
-0,0559319213023593
-0,0553517847497543
-0,0543982608877771
-0,053080578662157
-0,0514299862946641
-0,0494970066409229
-0,047347314559519
-0,04505665975932
-0,0427053268446852
-0,0403726439049848
-0,0381320214945177
-0,036046929390848
-0,0341681075158633
-0,032532171665311
-0,0311616281747349
-0,0300661690822898
-0,029244994827968
-0,0286898170934008
-0,0283881388917447
-0,028326397329031
-0,0284925869200739
-0,0288780540003779
-0,0294782574185679
-0,0302924162786745
-0,031322098611929
-0,0325689316593169
-0,034031721592999
-0,0357033468345869
-0,0375678265144104
-0,0395979599085332
-0,0417538841735833
-0,0439828108544792
-0,046220085070475
-0,0483915764204491
-0,0504172711184644
-0,0522158046290541
-0,053709566575564
-0,0548299360287171
-0,0555221734753343
-0,0557495097114217
-0,0554960311048016
-0,0547680600985068
-0,0535938605861357
-0,0520216477079451
-0,0501160366533305
-0,0479532103858581
-0,0456152079081361
-0,0431838208733003
-0,0407346283923715
-0,0383316934011676
-0,0360233888802049
-0,0338397233756246
-0,031791401297793
-0,0298706967109973
-0,0280540539582995
-0,0263061698669716
-0,0245851750379926
-0,0228484286411074
-0,0210583818206187
-0,0191879549284391
-0,0172249144433851
-0,0151748230885339
-0,0130622635337288
-0,0109301907890264
-0,00883743707914289
-0,00685456047591255
-0,00505837988538538
-0,00352566055137508
-0,00232649528528845
-0,00151795987620104
-0,00113860373817524
-0,00120427027162947
-0,00170563163399903
-0,0026076791438295
-0,00385124603537604
-0,00535646787099212
-0,00702792250993385
-0,00876104997264403
-0,0104493449160983
-0,011991749668183
-0,013299659106434
-0,0143029812513557
-0,0149547761393536
-0,0152341134838576
-0,0151469365753616
-0,0147248833872476
-0,0140221821460584
-0,0131108938947921
-0,0120749060371906
-0,0110031778678348
-0,00998279394738143
-0,00909238978881141
-0,0083964763306434
-0,00794110873566058
-0,00775122808148595
-0,00782986155732665
-0,00815920970575264
-0,00870349113120494
-0,00941326890744445
-0,0102308606319162
-0,0110963455898074
-0,0119536349492708
-0,0127560680851061
-0,0134710401209487
-0,0140832490646329
-0,0145962686221292
-0,0150322952303618
-0,0154300733443235
-0,0158411588298172
-0,0163248235825159
-0,0169420234252987
-0,0177489360310315
-0,0187906189463421
-0,0200953359216391
-0,0216700526138412
-0,0234975138333254
-0,0255351908886276
-0,0277162391090519
-0,029952444309232
-0,0321389758716444
-0,0341606164539207
-0,0358990162521828
-0,0372404333028497
-0,0380833777928399
-0,0383455814168925
-0,0379697624064793
-0,0369277489198931
-0,0352226506126825
-0,032888919893326
-0,0299903081621272
-0,0266158847670497
-0,0228744340891019
-0,0188876670192327
-0,0147827673413372
-0,0106848344943868
-0,00670977892704452
-0,00295817577337567
0,000489508262859403
0,00357602289903637
0,00626862927347061
0,00855858661041208
0,0104589828902986
0,0120011919947061
0,0132303413990075
0,0142002392087422
0,0149682322469367
0,0155904468281275
0,0161178036399546
0,016593104052852
0,0170493666644636
0,01750946140363
0,0179869566799335
0,0184879753205844
0,0190137586353422
0,01956357383811
0,0201375740394093
0,0207392343464458
0,0213770405655219
0,022065193286858
0,0228232011785867
0,0236743622384509
0,0246432581851882
0,0257525026393899
0,0270190766778644
0,0284506462008268
0,0300422778450769
0,031773950949001
0,0336092033611371
0,0354951535452465
0,0373640188783108
0,0391361112754555
0,0407241492153655
0,0420385932230855
0,0429936025947434
0,043513135507973
0,0435366805859364
0,0430241196704068
0,0419592792344513
0,0403518273278341
0,0382373061846959
0,0356752463999604
0,0327454732579645
0,0295428747462391
0,0261710395838503
0,0227352793218874
0,0193356110527355
0,0160602900605333
0,0129804426755945
0,0101462611464801
0,00758509145599598
0,00530158250065193
0,0032798847695442
0,00148770428417692
-0,000118150793223487
-0,00158523269320728
-0,00295852471075381
-0,00427376491694269
-0,00555165743177398
-0,00679353902345
-0,00797895053068163
-0,00906540226238415
-0,00999043332259657
-0,0106758627694002
-0,0110339328943967
-0,0109748689314775
-0,0104152407294102
-0,00928642292108637
-0,00754241936667989
-0,00516634878226429
-0,00217497981924315
0,00137915127966921
0,00540832034003912
0,00979295803609208
0,0143875978956665
0,0190290567173245
0,0235462863169815
0,0277711896891941
0,0315496035779301
0,0347516210440758
0,0372804646456369
0,0390792207279227
0,0401349003202538
0,0404794900473935
0,0401878815447864
0,0393728023068951
0,0381770960652612
0,036763899055401
0,0353054143945829
0,0339710883999308
0,0329160325682424
0,0322705107129928
0,0321312250674108
0,0325549956312054
0,0335552452400811
0,0351014936232056
0,0371218436163027
0,0395082288357841
0,0421240005305721
0,0448132759734413
0,047411362208429
0,0497555139018865
0,0516952846357835
0,0531017851220811
0,0538752632282875
0,0539505598886322
0,0533001599039758
0,0519347339618175
0,0499012443989451
0,0472788496034661
0,044172979613504
0,0407080601774587
0,0370194289392415
0,033245013455094
0,0295173274279397
0,0259562926167742
0,0226633152655859
0,0197169451223825
0,0171703303483596
0,015050561293727
0,0133598779368619
0,0120786065702678
0,0111695964135055
0,0105838501480414
0,010266986181979
0,0101661358056882
0,010236865002208
0,0104497175187514
0,0107960011293111
0,0112924808019481
0,0119846983766213
0,0129487060240702
0,0142910776001411
0,0161471454104993
0,0186774968845803
0,0220628530279176
0,0264975346122162
0,0321817990092804
0,0393133961427329
0,0480787421459635
0,0586441400561568
0,0711474851176127
0,0856908758136671
0,102334509947765
0,121092178846636
0,141928585000073
0,164758603812842
0,189448495121541
0,21581895237695
0,243649765507975
0,272685776030289
0,302643728020877
0,333219572699238
0,364095772173804
0,394948171309148
0,425452064723872
0,455287174582926
0,48414136731226
0,511713064408655
0,537712433356459
0,561861567688303
0,583893969170301
0,603553719955696
0,620594770615558
0,63478076654721
0,645885789305878
0,653696303622622
0,65801448167642
0,658662933262099
0,655490715914222
0,648380346410894
0,63725539819108
0,62208816094943
0,602906769723628
0,579801188764482
0,552927464001478
0,522509736426905
0,488839632225113
0,452272805118368
0,413222590014909
0,372150920350217
0,329556849131962
0,285963180735486
0,241901853572033
0,197898802400247
0,15445906639514
0,112052892629989
0,071103516189873
0,031977183873008
-0,00502416194384211
-0,0396672967332252
-0,0717891656857181
-0,101295494136325
-0,128156837550397
-0,152402483527517
-0,174112711944811
-0,193409970511113
-0,210449530692931
-0,225410156029871
-0,238485247364422
-0,249874836106544
-0,259778687502196
-0,268390661778642
-0,275894372185764
-0,282460084177034
-0,288242725870211
-0,293380830494797
-0,297996207860673
-0,302194142434072
-0,306063936443822
-0,309679651992866
-0,313100949812095
-0,316373967398292
-0,319532219686823
-0,322597536310204
-0,325581067774471
-0,328484397418069
-0,331300787594117
-0,334016569737224
-0,336612662637937
-0,339066175958163
-0,34135203147675
-0,343444516927903
-0,345318679733428
-0,346951472184629
-0,348322575780285
-0,349414858967228
-0,350214456550413
-0,350710496549916
-0,350894536791638
-0,35075980452954
-0,350300354002536
-0,349510266138465
-0,348383010199022
-0,34691106912578
-0,345085900426312
-0,3428982657426
-0,340338918961827
-0,337399599554114
-0,334074239565732
-0,33036026359758
-0,326259844411486
-0,321780974470974
-0,316938226062527
-0,311753098403077
-0,306253886642974
-0,300475051080024
-0,294456110674426
-0,288240128431183
-0,281871892975235
-0,275395927179659
-0,268854468624944
-0,262285567036172
-0,255721431194734
-0,249187134082656
-0,242699753169616
-0,23626798657629
-0,229892249281259
-0,223565220362462
-0,217272785558672
-0,210995301244219
-0,204709097093735
-0,198388134803648
-0,192005747643199
-0,185536397814863
-0,178957402621598
-0,172250593159035
-0,165403878060024
-0,158412687806106
-0,15128127160027
-0,144023809276291
-0,136665287005345
-0,129242070507719
-0,121802096630366
-0,114404597295925
-0,107119272409834
-0,100024842940774
-0,0932069433105549
-0,0867553530801588
-0,0807606194482588
-0,0753101804037911
-0,0704841580489672
-0,0663510463531607
-0,0629635607581881
-0,0603549424741515
-0,058536013002861
-0,0574932513237475
-0,0571881165658448
-0,0575577648261591
-0,058517214760492
-0,0599629096605052
-0,0617775128717557
-0,0638356684517026
-0,0660103699840334
-0,0681795164567097
-0,0702322023282675
-0,0720742937748758
-0,073632885855976
-0,0748593135704392
-0,0757304977235607
-0,076248535351075
-0,0764385830995257
-0,0763452182105601
-0,0760275832423111
-0,0755537162881271
-0,0749945293064543
-0,074417917629114
-0,0738834618042437
-0,0734381208524175
-0,0731132196668418
-0,0729229119709132
-0,0728641655288263
-0,0729181810795047
-0,0730530334960591
-0,0732272244325573
-0,0733937692308166
-0,0735044127160008
-0,0735135804701508
-0,0733817218936062
-0,0730777827890486
-0,0725806490963283
-0,0718795185215568
-0,0709732708545489
-0,0698690089414951
-0,0685800202923404
-0,0671234565512114
-0,0655180403729265
-0,0637820862399881
-0,0619320668893568
-0,0599818770870431
-0,0579428509701309
-0,0558244890191557
-0,053635757379374
-0,0513867461310979
-0,0490904228346099
-0,0467641987819165
-0,0444310400821881
-0,0421199024127243
-0,0398653419564024
-0,0377062477217885
-0,0356837420460987
-0,0338383955790498
-0,0322069895398477
-0,03081912206077
-0,0296939897482466
-0,0288376761866745
-0,028241245335588
-0,0278798727136554
-0,02771315706211
-0,0276866487420483
-0,0277345188912087
-0,0277831864636667
-0,0277556292631461
-0,0275760389131286
-0,0271744448848303
-0,0264909325965457
-0,0254791151679806
-0,0241085842413248
-0,0223661559716826
-0,020255835066137
-0,0177975324519186
-0,0150246801470615
-0,0119809801570238
-0,00871659430356412
-0,00528412264228209
-0,00173472637622962
0,0018852732693513
0,00553704282603297
0,00919093174924174
0,0128271100323189
0,0164351447839937
0,0200126112981952
0,0235629216989665
0,0270926225376568
0,0306084560065537
0,0341144944015742
0,0376096434850818
0,0410857695354137
0,0445266414943534
0,0479078001272074
0,0511973780265157
0,054357805765951
0,0573482584482942
0,060127630294402
0,0626577782758838
0,0649067526867187
0,0668517343908917
0,0684814244506133
0,0697976791243572
0,0708162471837216
0,0715665413552841
0,0720904547887715
0,072440310110924
0,0726760965074281
0,0728622040053371
0,0730638996387886
0,0733438050502154
0,0737586286329866
0,0743563786269487
0,0751742393649037
0,0762372351671244
0,0775577402906975
0,0791358244401053
0,0809603574547397
0,0830107392576161
0,0852590766516756
0,0876726005971851
0,090216108288101
0,0928542242192054
0,0955533023803758
0,0982828351324509
0,101016289177807
0,10373135035166
0,106409621041271
0,109035871074866
0,111596989410398
0,11408081521069
0,116475039541599
0,118766361180501
0,120940051990782
0,122980041041998
0,12486956607311
0,126592371492222
0,128134360605698
0,129485543456313
0,130642067746414
0,13160808536362
0,132397195974019
0,133033225102884
0,133550137518055
0,133990955477906
0,134405640594199
0,134848000433946
0,135371787420634
0,136026257808809
0,136851542093026
0,137874235521215
0,139103640644086
0,140529077927609
0,142118623748501
0,143819539637924
0,145560528474667
0,14725580191945
0,148810781130714
0,150129093938187
0,151120390988392
0,151708395055651
0,151838533606833
0,151484493426651
0,150653081796231
0,149386880534054
0,147764331191572
0,14589708091697
0,143924634110726
0,142006577107575
0,140312852679457
0,139012739370353
0,138263320931901
0,138198300536193
0,138918015086452
0,140481434852026
0,142900797023644
0,146139328821546
0,150112281912414
0,154691244327796
0,159711440332995
0,164981494511806
0,170294943731648
0,175442646212236
0,180225172080617
0,184464269956641
0,188012588050955
0,190760978231017
0,192642914095842
0,193635791268336
0,193759129076686
0,193069935824777
0,191655714300699
0,189625752372992
0,18710145229336
0,184206494148599
0,181057602486738
0,177756595305089
0,17438425180009
0,17099635436299
0,167622059053254
0,164264546076215
0,160903715867753
0,157500543098101
0,154002592255564
0,150350141709151
0,146482360187873
0,142343027112499
0,137885378140814
0,133075777917357
0,12789605929667
0,122344507370354
0,116435593331021
0,110198665630278
0,103675875312384
0,0969196442733838
0,0899899791889098
0,0829518939085676
0,0758731366781959
0,0688223356392328
0,0618675881288499
0,0550754377549614
0,0485101182562643
0,0422329025868482
0,0363013840713312
0,0307685348221458
0,0256814321142299
0,0210796099903594
0,0169930723652974
0,01344008502759
0,0104249365999112
0,00793591286644068
0,00594375707771481
0,00440088585861399
0,00324159459462658
0,00238341976192749
0,00172973411342444
0,00117354245622348
0,000602331460747324
-9,62819215494809E-05
-0,00102845101144717
-0,00228796206045582
-0,00395050359557063
-0,00606878015800809
-0,00866886232880373
-0,0117480833925883
-0,015274682368274
-0,0191892629304342
-0,02340799937908
-0,0278273865016494
-0,0323302118009161
-0,0367923364701674
-0,0410898136032255
-0,0451058531372119
-0,0487371640189981
-0,0518992625623688
-0,0545304260119036
-0,0565940833917061
-0,0580795613301001
-0,0590012294811124
-0,0593962074243495
-0,0593208928028698
-0,0588466414347755
-0,0580549694342862
-0,0570326534041619
-0,055867079003708
-0,0546421350769467
-0,0534348766952721
-0,0523130941717395
-0,051333835223959
-0,0505428426073795
-0,0499747972711021
-0,049654203133305
-0,0495967174333761
-0,0498107213100828
-0,0502989373538738
-0,0510599308683143
-0,0520893742950658
-0,0533810036162905
-0,0549272452498912
-0,0567195361549216
-0,0587483939123814
-0,0610033143283383
-0,0634725804109591
-0,0661430591015556
-0,0690000433045794
-0,0720271703592377
-0,0752064187509229
-0,0785181573958667
-0,0819412007351656
-0,0854528115921192
-0,0890285944207855
-0,0926422346085728
-0,0962650635957392
-0,0998654619018561
-0,103408148520824
-0,106853440740399
-0,110156598135796
-0,113267383691932
-0,116129980079227
-0,118683387882441
-0,12086240471794
-0,12259924116088
-0,123825774595038
-0,124476380304575
-0,124491216213565
-0,123819779972521
-0,122424510672619
-0,120284177628883
-0,117396789254373
-0,113781768085969
-0,10948117347202
-0,104559809123419
-0,0991041245827642
-0,0932199019992829
-0,0870288057251069
-0,0806639550121807
-0,0742647526397169
-0,0679712585970297
-0,0619184334163059
-0,0562305875984691
-0,0510163610484964
-0,046364520860625
-0,0423408102977598
-0,0389860111618976
-0,0363153016902122
-0,0343189089619924
-0,0329639748020064
-0,0321974829704038
-0,031950037697726
-0,0321402425988464
-0,0326794064677095
-0,0334762986100777
-0,0344416900016093
-0,0354924453110503
-0,0365549714432746
-0,0375678770786005
-0,0384837508884599
-0,0392700201220064
-0,0399089029901129
-0,0403965152152001
-0,0407412315390081
-0,0409614357297465
-0,0410828171927139
-0,0411353885355874
-0,0411504064999183
-0,0411573788254528
-0,0411813320915234
-0,0412405006555453
-0,0413445746726146
-0,0414936161401745
-0,0416777164585609
-0,0418774279421603
-0,0420649564001661
-0,0422060541653336
-0,0422625052909035
-0,0421950500372103
-0,0419665575935977
-0,0415452277220498
-0,040907586873064
-0,0400410450163936
-0,0389457976134055
-0,0376358932549284
-0,03613934039462
-0,0344971935628553
-0,0327616362040175
-0,0309931581587193
-0,0292570042781548
-0,0276191397363972
-0,0261420305397919
-0,0248805686932256
-0,0238784761251987
-0,0231654975861396
-0,0227556405003413
-0,0226466420058371
-0,022820745520911
-0,0232467587022923
-0,0238832508045748
-0,0246826403002082
-0,0255958332206918
-0,0265770081209937
-0,0275881120777695
-0,0286026382552216
-0,0296083007178755
-0,0306083041640556
-0,0316210195619574
-0,0326780125665613
-0,0338205189576399
-0,035094607517148
-0,0365454026201647
-0,0382108440303287
-0,0401155294182512
-0,0422652084180815
-0,0446424716370371
-0,0472041041721009
-0,0498804553445386
-0,0525770229865031
-0,0551782735775135
-0,0575535330387199
-0,0595646026017494
-0,0610745952887378
-0,0619573652342099
-0,062106825768244
-0,0614454306013705
-0,0599311290154991
-0,0575621992306842
-0,0543795079971014
-0,0504659285154681
-0,0459428590876951
-0,0409640051297173
-0,0357067998866672
-0,0303620273099727
-0,0251223586647812
-0,0201706101659722
-0,015668563924268
-0,0117471650724401
-0,0084988156140049
-0,00597233672406083
-0,00417097694368176
-0,00305361859444751
-0,00253909603756645
-0,00251330553817522
-0,00283857563287267
-0,00336459554434592
-0,00394008082341028
-0,00442429948140517
-0,00469759298259495
-0,00467010401257151
-0,00428806113409919
-0,00353715874872467
-0,00244279474413156
-0,00106717053023305
0,000496499902918825
0,00213220250111198
0,00371110153352052
0,00510249280332427
0,00618486680123712
0,00685621034831874
0,00704273647228893
0,00670535648797869
0,00584338578061801
0,00449519181934145
0,00273573248159769
0,000671176181236211
-0,00156897640486733
-0,00384165386640147
-0,00600109644002413
-0,00791000917067483
-0,00945011443804631
-0,0105312790163176
-0,0110985016396964
-0,0111362133158708
-0,0106695513852798
-0,00976250320619946
-0,00851305805966238
-0,00704573754144875
-0,00550207735145348
-0,00402979135706701
-0,00277144995337413
-0,00185354137239049
-0,00137675407643424
-0,00140822324517837
-0,00197633222446672
-0,00306846259891796
-0,00463185966078046
-0,00657754113178238
-0,0087869445068952
-0,0111208002471932
-0,0134295501733018
-0,0155645155448299
-0,017388966032437
-0,0187882528665138
-0,0196782455735347
-0,0200114456554296
-0,0197803316146563
-0,0190177036255092
-0,0177940261676756
-0,0162119951733037
-0,0143987650963321
-0,0124964447574906
-0,0106515957452268
-0,00900453428049565
-0,00767924211574021
-0,0067746345028953
-0,00635781864733737
-0,00645981396281103
-0,00707400910872638
-0,00815741605065057
-0,00963456539681299
-0,0114036871110988
-0,0133446520149195
-0,0153280252345274
-0,0172245121319189
-0,0189140651063956
-0,0202939659299724
-0,0212852982492133
-0,0218373694678998
-0,0219298177943334
-0,0215723337460233
-0,02080211959421
-0,0196793890679825
-0,0182813585946354
-0,0166952886754752
-0,015011191597251
-0,0133148258610116
-0,0116815493129679
-0,0101715073674981
-0,00882649918683198
-0,00766870560633058
-0,00670129233516443
-0,00591073555412419
-0,00527056890956317
-0,00474613362390511
-0,00429983661209083
-0,003896390980947
-0,00350753078469329
-0,00311575477509398
-0,00271675560742845
-0,00232032157548234
-0,00194964523338111
-0,00163912363601894
-0,00143087486060841
-0,00137031257270349
-0,00150120456603034
-0,00186068546088483
-0,00247469480302255
-0,00335427031811033
-0,00449304644172948
-0,00586619825949563
-0,00743094089186935
-0,00912855612371298
-0,0108877840267114
-0,0126292992844219
-0,0142708999751291
-0,0157329783330466
-0,0169438229289248
-0,0178443208098945
-0,0183916839563166
-0,0185619113468414
-0,0183508077868773
-0,0177735034793195
-0,0168625432800081
-0,0156647309520524
-0,0142370118680971
-0,0126417496568927
-0,0109417929497409
-0,00919573509375998
-0,00745374299304746
-0,00575427429236513
-0,00412192071779662
-0,00256651697070148
-0,00108354785422382
0,000344219748842413
0,00174405022071757
0,00314974811423503
0,00459767042114547
0,00612258129477334
0,00775369193449316
0,00951120501375042
0,0114036356976539
0,0134261145051995
0,0155597969385673
0,0177724175132033
0,0200199384069751
0,0222491618682059
0,024401106484667
0,026414894910941
0,0282318678542781
0,0297996275348897
0,0310757235531253
0,0320307236358708
0,0326504583932524
0,0329372892722117
0,0329103178470077
0,0326045276105366
0,0320689214937104
0,03136378476156
0,0305572593892957
0,0297214590252978
0,0289283805436697
0,0282458774789765
0,027733951832147
0,0274415946618273
0,0274043643570772
0,0276428374558709
0,0281620040745222
0,0289516128728216
0,0299874037560905
0,0312331050449357
0,0326430202032054
0,0341649913044825
0,0357435053016062
0,0373227066066215
0,0388490959480614
0,0402737298559308
0,0415537848747145
0,0426534118329231
0,0435438731986572
0,0442030249876727
0,0446142679080922
0,0447651445658338
0,0446457956568721
0,0442475042347572
0,0435615512002774
0,0425785767540573
0,0412885934098945
0,0396817299089778
0,0377497074317313
0,0354879665675529
0,0328982830903415
0,02999164036213
0,0267910732397058
0,0233341686028251
0,0196749051624332
0,0158845418679553
0,0120513193889204
0,00827881954720334
0,00468292761068728
0,00138745448678801
-0,00148140893733179
-0,0038015243414738
-0,00546175166030489
-0,00636896575384411
-0,00645466456163168
-0,00568068723949723
-0,00404359568952069
-0,00157734317845692
0,00164604496354948
0,00551792824652845
0,00989665495202636
0,0146131776504848
0,0194784062678862
0,0242919028152578
0,0288514259517099
0,0329627707836127
0,0364493243383776
0,0391607717292961
0,0409804409196406
0,0418308610269147
0,0416772236613665
0,0405285703406955
0,0384366717791199
0,0354927066471542
0,0318219784652844
0,027577020913108
0,0229295271014595
0,0180615924976195
0,0131567819350941
0,00839151866877203
0,00392725035281471
-9,62223211635796E-05
-0,00356595757793904
-0,00639943008510028
-0,0085463459093062
-0,00998873144308011
-0,0107394087096604
-0,0108390510565511
-0,0103520765841258
-0,00936167943719458
-0,00796432058284127
-0,00626400081765499
-0,00436662163535742
-0,00237470741100698
-0,000382718904697619
0,00152686260583483
0,00328655528104604
0,00484592930449437
0,00617267137464211
0,00725268591303171
0,00808929677501219
0,00870164508810213
0,00912240358837017
0,00939494593926202
0,00957012172015245
0,00970279486407676
0,00984830591179098
0,0100590169886912
0,0103810929832464
0,0108516628763864
0,0114964911627581
0,0123282703907848
0,0133456217126963
0,0145328609279607
0,01586055319455
0,0172868413655553
0,0187594922725401
0,0202185643997153
0,0215995618356116
0,0228369060321172
0,0238675316100863
0,0246343978756436
0,0250897058398584
0,0251976226123081
0,0249363411711037
0,024299342681056
0,0232957784876074
0,0219499463896476
0,0202998966009099
0,0183952622998572
0,0162944630704478
0,0140614723738469
0,0117623687853294
0,00946190253346892
0,00722030271373764
0,00509052687729122
0,00311611550788456
0,00132976259349658
-0,000247345347374159
-0,00160543060432912
-0,00274533284355711
-0,00367714156191214
-0,00441840631299976
-0,00499210024653075
-0,00542451705295924
-0,00574326913252157
-0,00597552758121634
-0,00614660582214053
-0,00627894291300621
-0,00639149490083948
-0,00649949828924831
-0,00661453355393159
-0,00674479242240105
-0,00689544271317193
-0,00706898961281471
-0,00726555127486262
-0,00748299683244076
-0,00771693228320211
-0,00796055921277594
-0,00820446765393026
-0,00843645248766656
-0,00864145842945141
-0,00880175901042131
-0,00889745896659498
-0,00890737795320117
-0,00881032930182498
-0,00858675514180116
-0,00822062434938737
-0,00770144894779239
-0,00702623418601538
-0,00620115330003423
-0,00524273427448546
-0,00417836516923905
-0,00304596683959383
-0,00189274482785927
-0,000773011093856196
0,000254845644306228
0,00113207300593648
0,00180370213969055
0,00222281474081921
0,00235457478998939
0,00217965894202416
0,00169674165767794
0,000923746712240566
-0,000102337262335454
-0,00132716899349321
-0,00268225988394676
-0,00408950598817213
-0,0054667547644069
-0,00673400731932785
-0,00781977818239241
-0,00866709329327877
-0,00923860852841399
-0,00952037781339276
-0,00952388978897102
-0,00928611935538251
-0,00886749581791296
-0,00834786052953122
-0,00782065971684054
-0,00738577762969104
-0,00714154691403878
-0,00717656464256434
-0,00756198417207172
-0,00834493934596929
-0,00954368749317344
-0,0111449349392197
-0,0131036418292965
-0,0153454044727109
-0,0177712988594666
-0,0202648560811836
-0,0227006472011176
-0,0249537986706194
-0,0269096542236551
-0,0284727559275076
-0,0295743415525656
-0,0301776479713689
-0,0302804655311471
-0,0299145955198438
-0,0291421065681189
-0,028048547203956
-0,0267335298997201
-0,0252993356178685
-0,0238383772476002
-0,0224204887432581
-0,021081062073262
-0,0198110297764204
-0,0185495868178975
-0,0171803678690545
-0,0155315574599773
-0,0133801282812505
-0,0104600986700899
-0,00647439761380984
-0,00110964832307737
0,00594704819012214
0,0149904113662513
0,0262795262770044
0,0400217967005447
0,0563593751101175
0,0753589654103699
0,0970056529929392
0,121201126094781
0,14776633530712
0,17644831943083
0,206930630940641
0,238846546463917
0,271794066438293
0,305351607659238
0,339093280275766
0,372602717248432
0,405484582369754
0,437373108973572
0,467937296125601
0,496882689164194
0,523949971590605
0,548910870256138
0,571562102457257
0,591718252961988
0,609204547833172
0,623850483778371
0,635485177501377
0,643935127404037
0,649024844802114
0,650580533799719
0,648436701971527
0,642445293612233
0,632486678552815
0,618481624867471
0,600403251113542
0,578287904942254
0,552243954780448
0,522457607173498
0,489195064345438
0,452800598229672
0,41369041725015
0,372342515866089
0,329282998561344
0,285069634852594
0,240273608430782
0,195460555140086
0,151172030879676
0,107908508658893
0,0661148783046059
0,0261692240770371
-0,0116245979663936
-0,0470403478682593
-0,0799288159749549
-0,110213605074371
-0,137883864367173
-0,162984744014802
-0,185606452621127
-0,205872835136026
-0,223930345058341
-0,23993816916555
-0,254060088251422
-0,266458441439868
-0,277290325727985
-0,286705929011144
-0,294848685647416
-0,301856777583786
-0,307865395659493
-0,313009133667733
-0,31742391431807
-0,321247937053932
-0,324621282233979
-0,327683988954396
-0,330572625652207
-0,333415572817455
-0,336327415140726
-0,339402978005727
-0,342711626099429
-0,346292461184517
-0,350151008955781
-0,354257875115091
-0,358549688140562
-0,362932445674649
-0,367287161751
-0,37147749405082
-0,375358834826077
-0,378788195051529
-0,381634114082278
-0,383785796770905
-0,385160720777068
-0,385710066289897
-0,385421489900664
-0,384318979648373
-0,382459770830054
-0,379928550849833
-0,376829414354751
-0,373276226507935
-0,369382195007505
-0,365249527416002
-0,360960052488309
-0,356567611765742
-0,352092886553051
-0,347521127242059
-0,342803013474968
-0,337858614914087
-0,332584165213373
-0,32686112775775
-0,320566840379515
-0,313585893428544
-0,305821332068376
-0,297204784466139
-0,287704701265505
-0,277332041103165
-0,266142939152152
-0,254238133840777
-0,241759181285173
-0,228881736832647
-0,215806408273858
-0,202747868011189
-0,189923037616275
-0,177539218554408
-0,165783033594463
-0,154810966450637
-0,144742149838974
-0,135653866380233
-0,127580008331696
-0,120512508945108
-0,114405529145339
-0,10918197629784
-0,10474176308674
-0,100971096540326
-0,0977520284294054
-0,0949715020349978
-0,0925291951398923
-0,0903435786447058
-0,0883557738689354
-0,086530985443519
-0,0848574947123668
-0,0833434037544977
-0,0820115061067908
-0,0808928122946564
-0,080019364552721
-0,0794170276164624
-0,0790989374794004
-0,0790602284699425
-0,0792745462781544
-0,0796927000663715
-0,080243623186211
-0,0808376142062737
-0,0813716338740723
-0,0817362551169179
-0,0818237165545766
-0,0815364271186954
-0,0807952186211855
-0,0795466487667806
-0,0777687190115819
-0,0754744852530252
-0,0727131959360661
-0,0695687797334167
-0,0661557089610071
-0,0626124694712102
-0,0590930569309657
-0,0557570783028951
-0,0527591534569429
-0,0502383758825077
-0,0483085981843999
-0,0470502566357688
-0,0465043431956618
-0,0466689810176625
-0,0474988721249156
-0,0489076778661718
-0,0507731798735043
-0,0529448677547607
-0,0552534249970823
-0,0575214497248221
-0,0595746621270163
-0,061252821624861
-0,0624196059386592
-0,062970788286005
-0,0628401809509566
-0,0620029826433299
-0,0604763598861747
-0,0583172939340146
-0,0556179188276254
-0,0524987483352957
-0,0491003269981739
-0,0455739335993446
-0,042072008157119
-0,0387389643402638
-0,0357029904965123
-0,0330693407847496
-0,0309154829532891
-0,029288313301322
-0,0282034857429576
-0,0276467442183245
-0,0275770084873288
-0,0279308529475742
-0,0286279440183802
-0,0295769677442297
-0,030681585909326
-0,0318460027309045
-0,0329797987846941
-0,0340017852966105
-0,034842740126459
-0,0354469958767035
-0,0357729505190304
-0,0357926531186781
-0,0354906753545724
-0,0348625100460664
-0,0339127402680727
-0,0326531992000519
-0,031101296456177
-0,0292786280183909
-0,0272099218451892
-0,0249223077938106
-0,0224448460823892
-0,0198082090999678
-0,0170443909794832
-0,0141863195963587
-0,0112672658077078
-0,00831998165456054
-0,0053755480388441
-0,00246196673605307
0,000397415235727485
0,00318551561513636
0,00589299630799631
0,00851943344613855
0,0110740056566634
0,013575554685152
0,0160519173423512
0,0185384867996644
0,0210760290897627
0,0237078508053539
0,0264764797184718
0,0294200749591998
0,0325688221387643
0,0359415874115019
0,0395431009066266
0,0433619140719031
0,0473693291442787
0,0515194357814261
0,0557503148369986
0,0599863882345427
0,0641418131318799
0,0681247442002102
0,0718422252493405
0,0752054250059818
0,0781349045853421
0,0805655975234126
0,0824511971414843
0,0837676789602407
0,0845157351919099
0,0847219603526524
0,0844386975939318
0,0837425299069389
0,0827314745933096
0,081521009170124
0,0802391187317963
0,0790206058210766
0,0780009419764832
0,077309963966648
0,0770657266192693
0,077368818118964
0,0782974232339151
0,0799033862024272
0,0822094794512385
0,0852080287773153
0,0888609823547308
0,0931014424032443
0,0978366074274853
0,102952002635586
0,108316809704213
0,113790047755895
0,119227308497144
0,124487712889058
0,129440737096627
0,133972553636952
0,137991550778435
0,141432729379763
0,144260730455012
0,146471316645046
0,148091213073992
0,149176303454355
0,149808270614278
0,15008986119311
0,150139036359299
0,150082338461
0,150047852775415
0,150158170135879
0,150523757872019
0,151237122409592
0,152368098086864
0,153960526016593
0,156030498550573
0,15856624482339
0,161529627705385
0,164859119467545
0,168474029789152
0,172279682032901
0,176173177568121
0,180049357404285
0,183806567688631
0,187351860944905
0,190605316294606
0,193503235415243
0,196000061021835
0,198068964240954
0,19970114868961
0,200904014440125
0,201698406892257
0,202115237448631
0,202191799932629
0,201968116041367
0,201483624156783
0,200774480289183
0,199871671738834
0,198800059177896
0,197578368651924
0,196220059804403
0,19473490892792
0,193131073245895
0,191417352906827
0,189605344463603
0,187711186754849
0,185756637105775
0,183769279994448
0,18178175651986
0,179830003883219
0,177950600649669
0,176177416050187
0,174537850254072
0,173049018445627
0,171714267533049
0,170520415535488
0,169436068332461
0,168411297809528
0,167378864078075
0,16625703990774
0,164953957670124
0,163373259533035
0,161420702535546
0,159011263392106
0,15607621379969
0,15256960367904
0,14847360198539
0,143802203551577
0,138602913002902
0,132956156347943
0,126972337227369
0,120786635190915
0,114551823260822
0,108429546530675
0,102580638531722
0,097155145485606
0,0922827714674297
0,0880644449633502
0,0845656389038701
0,0818119562573949
0,0797873302840003
0,078434995055505
0,0776611730430642
0,0773412192361885
0,0773277723756527
0,0774603090645074
0,0775753888655275
0,0775168272338695
0,0771450429003933
0,0763448967565322
0,0750314647824956
0,0731533580331535
0,070693404010257
0,0676667192792774
0,0641164149052275
0,0601073664722316
0,0557186332230237
0,0510352133646727
0,0461398664098044
0,0411057149866494
0,0359902597303942
0,0308313086333752
0,0256451481078916
0,0204270821560614
0,0151542557489358
0,00979047691106186
0,00429257634039823
-0,00138229143962016
-0,00726908401523971
-0,013387746458952
-0,0197371916477215
-0,02629095724773
-0,0329949688189969
-0,0397676602862278
-0,0465025043838531
-0,0530728036461384
-0,0593384042422063
-0,0651538361103361
-0,0703772664100679
-0,0748795883608867
-0,0785529586497558
-0,0813181434641128
-0,0831301308121228
-0,0839816059450367
-0,0839040549076511
-0,0829664439200566
-0,0812716040726053
-0,0789506168537705
-0,0761556333640377
-0,073051658574742
-0,0698078852448964
-0,0665891677357263
-0,0635481857388612
-0,0608187673965757
-0,0585107291527506
-0,0567064568733303
-0,055459311407134
-0,0547938040210124
-0,054707364133388
-0,0551734227160215
-0,0561454661297561
-0,0575616804367565
-0,059349805635211
-0,0614318499166714
-0,0637283705820196
-0,0661621032810803
-0,0686608063048861
-0,0711592730016416
-0,073600544833768
-0,0759364232779035
-0,0781274256893054
-0,0801423556486814
-0,0819576617549758
-0,0835567421515443
-0,0849293190144356
-0,0860709629440013
-0,0869827976922354
-0,0876713670691739
-0,0881486039327142
-0,088431810546453
-0,0885435435494232
-0,0885112968649011
-0,088366891791446
-0,0881455133470277
-0,087884372200168
-0,0876210177873197
-0,0873913753532593
-0,0872276225276267
-0,0871560549238485
-0,0871951112401055
-0,087353733864236
-0,0876302298341139
-0,0880117696176188
-0,0884746194529199
-0,0889851501795633
-0,0895016059032604
-0,089976554397002
-0,0903598830869559
-0,0906021547547866
-0,0906581001071075
-0,090490003511132
-0,0900707355890698
-0,089386202748237
-0,0884370182402581
-0,0872392498318011
-0,085824162037317
-0,0842369416274852
-0,0825344685373721
-0,0807822648303021
-0,0790508166553066
-0,0774115132423189
-0,0759324789791485
-0,0746745866968776
-0,0736879311595746
-0,0730090116389118
-0,0726588231906145
-0,0726419911725717
-0,0729470072452949
-0,0735475431564886
-0,0744047371607473
-0,0754702732484092
-0,0766900113451654
-0,0780078824083742
-0,0793697397363067
-0,0807268591058004
-0,0820388060455465
-0,0832754371893476
-0,0844178709656175
-0,0854583459105183
-0,0863989763672389
-0,0872495081392653
-0,088024263312884
-0,0887385368103294
-0,08940476092646
-0,0900287832466774
-0,0906066048890881
-0,0911218990458705
-0,0915445757663601
-0,0918305814599868
-0,0919230264190478
-0,0917546280483831
-0,0912513497628071
-0,090337014388465
-0,0889385847058763
-0,0869917398196197
-0,0844463399026512
-0,0812713669854618
-0,0774589566962371
-0,0730271935046204
-0,0680214257823049
-0,0625139604443479
-0,0566021119555123
-0,0504046979699021
-0,0440571845369534
-0,0377057788758853
-0,0315008398393787
-0,0255900198576855
-0,0201115643716092
-0,0151881751443245
-0,0109217946594697
-0,00738959481454806
-0,00464136094646272
-0,00269835997937233
-0,00155367776209759
-0,00117391396668492
-0,0015020407807949
-0,00246116997060775
-0,00395893560501928
-0,00589218825936052
-0,00815170994404763
-0,0106266941224604
-0,0132087869427362
-0,0157955479092886
-0,0182932537063278
-0,020619030966535
-0,022702356466417
-0,0244860019200509
-0,025926522519083
-0,0269943929370502
-0,027673883074878
-0,0279627416561347
-0,0278717235293461
-0,0274239618102444
-0,0266541545238869
-0,0256075124630322
-0,0243384047679503
-0,0229086437234085
-0,0213853711136419
-0,0198385436132026
-0,0183380606833241
-0,0169506302159478
-0,0157365184717519
-0,0147463751427731
-0,014018355254177
-0,0135757718550491
-0,0134255034425894
-0,0135573463594685
-0,0139444460911093
-0,0145448659419547
-0,0153042628040449
-0,0161595452221666
-0,0170432973618577
-0,0178886728252709
-0,0186344028721703
-0,0192295314434377
-0,019637489160138
-0,0198391521143426
-0,0198345976493527
-0,0196433641536553
-0,019303138075583
-0,0188669195033251
-0,0183988468679371
-0,0179689802062981
-0,0176474400847568
-0,0174983663747668
-0,0175741907050272
-0,0179107048335166
-0,0185233542184654
-0,019405095252297
-0,0205260328773724
-0,0218349125149808
-0,0232623882700284
-0,0247258411615627
-0,0261353894587727
-0,0274006295757207
-0,0284375796211688
-0,0291752746226765
-0,0295614849882287
-0,0295670962868567
-0,0291887934677526
-0,0284498273986286
-0,0273987946977888
-0,0261065203233499
-0,0246612829067079
-0,0231627527624068
-0,0217151111440816
-0,0204198786960078
-0,0193689966859841
-0,0186386758524099
-0,0182844576892908
-0,0183378283994809
-0,0188045960525966
-0,0196650981213745
-0,0208761619317537
-0,0223746067511025
-0,0240819642008878
-0,0259100120703594
-0,0277666712363531
-0,0295618087301756
-0,0312125210375578
-0,0326475362571633
-0,0338104647879615
-0,034661736737734
-0,0351791800890963
-0,0353573064645774
-0,0352054714962131
-0,0347451563418086
-0,0340066700340642
-0,0330255960584524
-0,0318393005879124
-0,0304837866574413
-0,0289911230860963
-0,0273876057607444
-0,0256927296625641
-0,0239189706721509
-0,022072304147556
-0,0201533287430604
-0,018158823370347
-0,0160835449628694
-0,0139220749468882
-0,0116705411173517
-0,00932807526118773
-0,00689791040902135
-0,00438806938165341
-0,00181164269029325
0,000813306212178771
0,00346414077538062
0,00611427195942786
0,0087339120037855
0,0112908829466167
0,0137514206478392
0,0160809404950369
0,0182447583368618
0,0202087850222063
0,0219402312366287
0,0234083680525066
0,024585386040876
0,0254473817646303
0,0259754764300778
0,0261570403190763
0,0259869623671989
0,0254688716050901
0,0246161909320903
0,0234528882139767
0,0220137883291322
0,0203443244541959
0,0184996377533976
0,01654298005389
0,0145434306197959
0,0125730008901377
0,0107032640834505
0,00900170353785061
0,00752801835472235
0,00633065202429144
0,005443815308075
0,00488525669809994
0,00465499239124974
0,00473514525535175
0,00509096319179547
0,00567299779903361
0,00642033175566228
0,0072646558468001
0,0081349219058405
0,00896224307693014
0,00968468314479385
0,0102515755700953
0,010627041239027
0,0107924301575698
0,0107474923029217
0,0105101803591962
0,0101150942296624
0,00961068520474425
0,00905543739297604
0,00851332700568502
0,00804891912055788
0,00772249138786842
0,00758557193975927
0,00767724438042113
0,00802150872862632
0,00862589870724672
0,00948145005494695
0,010564000398838
0,0118366882878621
0,0132534168806473
0,0147629653547548
0,0163133756299773
0,017856218567993
0,0193503548521335
0,0207648507908619
0,0220807849201274
0,0232917814387824
0,0244032228697484
0,0254302170314197
0,0263945117572189
0,0273206542887941
0,0282317713291442
0,0291453927095877
0,030069751329308
0,0310009624201461
0,031921417537113
0,0327996275946419
0,0335916224774488
0,0342438724557383
0,0346975508321225
0,0348938206925013
0,034779713846951
0,0343140881684618
0,0334731093688521
0,0322547103390259
0,0306815372736858
0,0288019944386407
0,026689142074214
0,0244373742119859
0,022156991756803
0,0199669756356095
0,0179864389413375
0,0163253801303239
0,0150754577346709
0,0143015501485182
0,0140348454784844
0,0142681248166159
0,0149537614286434
0,0160047672745495
0,0172989905963842
0,0186863212268269
0,0199985133452679
0,021061008858085
0,021705957715095
0,0217855009864524
0,0211843209704921
0,0198304773064568
0,0177036402643738
0,0148399970305832
0,0113333328007342
0,00733205948097418
0,0030322604074027
-0,00133288300329371
-0,00550664069296763
-0,00922438478262442
-0,012230296421264
-0,0142939887030293
-0,0152258951326004
-0,0148903479720713
-0,0132154256710055
-0,0101988717235827
-0,00590966163209521
-0,000485099142348728
0,00587636568545782
0,0129261092238467
0,0203793542768496
0,0279312946576748
0,0352742534810795
0,0421147550035404
0,0481894211214552
0,053278710913835
0,0572176946201643
0,0599032771819141
0,0612975426774088
0,0614271595798202
0,0603790477053318
0,0582927424247319
0,0553500845958622
0,0517630041388032
0,0477602443911363
0,0435738914270905
0,0394265303665019
0,0355197564809215
0,0320246331946902
0,0290745246865118
0,0267605516322375
0,025129738461574
0,0241857519108626
0,0238919841147244
0,0241766167389637
0,0249392204477288
0,0260583978897505
0,0273999671790704
0,028825202847505
0,0301986970580983
0,0313954689240171
0,0323070271899898
0,032846174590764
0,0329504250458579
0,0325839826902684
0,0317383012017372
0,0304313009112568
0,0287053690223456
0,0266243051333839
0,0242694011476295
0,0217348628722666
0,0191227915661149
0,0165379485836385
0,0140825258858515
0,0118511399108993
0,00992625601550985
0,00837423499081065
0,00724217142671352
0,00655566542795365
0,00631763409066168
0,00650822746847776
0,00708586631673947
0,00798936723630331
0,00914106716213483
0,0104508062538747
0,0118205793543902
0,0131496246474713
0,014339687217934
0,0153001776977617
0,0159529442024222
0,0162363904549547
0,0161087044191465
0,0155500087424297
0,0145633044719326
0,01317414941864
0,011429087873868
0,00939292424395385
0,00714500440546857
0,00477473023122137
0,00237658032897706
4,49400282196466E-05
-0,00213094633647295
-0,00407159870016174
-0,00571122922097041
-0,0070007535810992
-0,00790972865553592
-0,00842713410729203
-0,00856099475116393
-0,00833691871837569
-0,00779569775599747
-0,0069901751304563
-0,00598162921845003
-0,00483594393397727
-0,00361983914315651
-0,0023974153812206
-0,0012272293830505
-0,000160063602545379
0,000762511309406988
0,00150875161963832
0,00205657269901862
0,00239270028567496
0,0025112937916696
0,00241222992350809
0,00209925188582499
0,00157818715107958
0,000855415975258938
-6,32640598927079E-05
-0,00117328131937948
-0,00247140147817233
-0,00395532547965953
-0,00562284703665061
-0,00747068813504352
-0,00949316341161628
-0,011680840701201
-0,0140193642278998
-0,0164885892523398
-0,0190621445469697
-0,02170749531391
-0,0243865286225723
-0,0270566312499693
-0,0296721811939055
-0,0321863338832976
-0,0345529561447436
-0,0367285479212487
-0,0386739946897358
-0,0403560119783879
-0,0417481752904273
-0,0428314707138594
-0,04359434918961
-0,0440323159285206
-0,0441471309068737
-0,0439457322517898
-0,0434390181015902
-0,0426406318606354
-0,0415658898187038
-0,0402309695565541
-0,038652444562847
-0,0368472084320208
-0,0348327851884797
-0,0326279754555978
-0,0302537461203222
-0,0277342381525421
-0,0250977467550656
-0,0223775222827011
-0,0196122501728393
-0,0168460928310561
-0,0141282138668189
-0,0115117519613882
-0,0090522636909385
-0,00680570703945518
-0,00482608520092486
-0,00316290909235991
-0,00185866295776125
-0,000946467921571295
-0,000448131998546951
-0,000372752077094871
-0,000715995387750112
-0,00146013794261686
-0,00257487944233171
-0,00401889304807951
-0,00574200936583003
-0,00768788208331045
-0,00979694250665942
-0,0120094254034792
-0,0142682414878672
-0,0165214835325568
-0,0187243828544833
-0,0208405786322199
-0,0228426206368949
-0,0247116918041067
-0,0264366052060678
-0,0280121946049901
-0,0294372732324782
-0,0307123766972328
-0,0318375289463831
-0,0328102723966531
-0,0336241837334688
-0,0342680563209978
-0,0347258712801679
-0,0349776063891902
-0,0350008506668022
-0,0347731094289758
-0,0342746067949404
-0,0334913270523923
-0,0324179892109587
-0,0310606255921729
-0,0294384387877584
-0,0275846431532466
-0,0255460563066354
-0,0233812897551725
-0,0211574905047059
-0,0189457002783183
-0,0168150173927654
-0,0148258593334314
-0,0130227225023469
-0,0114269110534219
-0,0100297521160572
-0,00878682496711429
-0,00761370421864815
-0,0063836519846725
-0,00492759425451472
-0,00303658802763496
-0,00046683621935648
0,00305285317704816
0,0078114276762842
0,0141041837464819
0,0222201331527849
0,032428777511449
0,0449669826407459
0,0600266568882962
0,077743904932265
0,0981902522320328
0,121366420164965
0,147198985518109
0,175540090348249
0,2061701907089
0,238803657550567
0,273096882184093
0,308658402964458
0,345060468275206
0,381851389971368
0,418568024590122
0,454747747136966
0,4899393510831
0,523712412475081
0,555664787334964
0,585428059653352
0,612670911004254
0,637100530802975
0,658462317779229
0,676538229172488
0,691144207388604
0,702127149966764
0,709361886124612
0,71274858329862
0,712210934137605
0,707695374933126
0,69917146887534
0,686633461422606
0,670102890440217
0,649632020269336
0,625307775102733
0,597255779877158
0,565644081052698
0,530686117435902
0,492642542285629
0,451821559572276
0,408577524461585
0,363307664162165
0,316446892280577
0,268460809313178
0,219837095467856
0,171075601992354
0,122677527161589
0,0751341183256976
0,0289153691513924
-0,0155408192887168
-0,0578385723204851
-0,0976326803134148
-0,134635622580246
-0,168622741106056
-0,199435420461359
-0,226982223560766
-0,251238022128563
-0,272241241047132
-0,290089403540615
-0,304933217045474
-0,316969476618005
-0,326433084054039
-0,333588487781302
-0,338720843067476
-0,342127176577617
-0,344107816400376
-0,344958320705579
-0,344962107196232
-0,344383952888568
-0,343464500396332
-0,342415873104873
-0,341418467368809
-0,340618954903022
-0,340129492649746
-0,340028100614843
-0,340360130949127
-0,341140714873734
-0,342358039425913
-0,343977275428478
-0,345944953811123
-0,348193571731813
-0,350646204894316
-0,353220909515256
-0,355834717170871
-0,358407057873544
-0,360862489628711
-0,363132663765599
-0,365157510892937
-0,366885688136498
-0,368274379750283
-0,369288585840943
-0,369900063937796
-0,370086102683414
-0,369828304548638
-0,369111535364159
-0,367923164370361
-0,366252672772839
-0,364091656015235
-0,361434190576591
-0,358277485752584
-0,354622700043324
-0,350475774992825
-0,345848129812172
-0,340757069329708
-0,33522578524711
-0,329282873876999
-0,322961348267425
-0,316297183283883
-0,309327492360518
-0,302088487638753
-0,294613414946609
-0,286930676568134
-0,279062354746144
-0,271023326200279
-0,262821113764142
-0,254456558926276
-0,245925323987918
-0,237220151572982
-0,228333730090215
-0,219261944266275
-0,210007237263054
-0,20058178091522
-0,191010147129613
-0,181331197864261
-0,171598962186321
-0,161882342961524
-0,152263586833123
-0,142835551629846
-0,133697906543656
-0,124952493456002
-0,116698154369517
-0,109025383105454
-0,10201118435072
-0,0957145173357173
-0,0901726651157178
-0,0853988065453725
-0,0813809818116059
-0,0780825410303642
-0,0754440572961441
-0,0733865795989414
-0,0718160057151311
-0,0706282780645657
-0,0697150523724401
-0,0689694634259232
-0,0682916154989663
-0,0675934559167194
-0,0668027452881007
-0,0658659118322478
-0,0647496633508873
-0,0634413214177444
-0,0619479309692335
-0,0602942779386464
-0,0585200123580842
-0,0566761204114982
-0,0548210141047721
-0,0530165111501066
-0,051323961785104
-0,0498007464544487
-0,0484973226156545
-0,0474549450855847
-0,0467041272313125
-0,0462638546090148
-0,0461415124011816
-0,0463334463761324
-0,046826046143593
-0,0475972201792906
-0,0486181243023496
-0,0498550079997746
-0,0512710544363971
-0,0528281080219768
-0,0544882056583953
-0,0562148519630849
-0,0579740028448276
-0,0597347441456152
-0,0614696715111323
-0,0631549935205082
-0,0647703921846154
-0,0662986832945727
-0,0677253241733782
-0,0690378186343689
-0,0702250689262046
-0,0712767226368134
-0,0721825593192045
-0,0729319572641803
-0,0735134755206199
-0,0739145800381301
-0,0741215356904159
-0,074119477989637
-0,0738926695970292
-0,0734249374583759
-0,0727002768077229
-0,0717035987496082
-0,0704215890854667
-0,0688436379535191
-0,0669627931869274
-0,064776685472837
-0,0622883707921955
-0,0595070354824551
-0,0564485117495076
-0,0531355565986061
-0,0495978548926363
-0,0458717174098484
-0,041999457110409
-0,0380284410128132
-0,0340098306864496
-0,0299970409055626
-0,0260439628556236
-0,0222030147329652
-0,0185230977647086
-0,015047548689147
-0,0118121894966187
-0,00884358071645138
-0,00615758469695997
-0,00375833932166007
-0,00163772980448193
0,000224573583720332
0,00186047053345535
0,0033121695349457
0,00463033841038961
0,00587173354723047
0,00709641369079207
0,00836467977823224
0,00973391154846802
0,0112554915411115
0,0129720149818163
0,014914978021686
0,017103115918989
0,0195415272132679
0,0222216712883178
0,0251222677142934
0,0282110604067212
0,0314473428005079
0,0347850774098828
0,0381763898621869
0,0415751789657038
0,0449405648688905
0,0482398997933039
0,0514510913674802
0,0545640364094627
0,0575810302681195
0,0605160987153005
0,0633932895113191
0,0662440515756119
0,0691039131967463
0,0720087390741234
0,0749908923594329
0,0780756470568727
0,0812781851647195
0,0846014714410015
0,0880352290705353
0,0915561469552547
0,0951293412960579
0,098710979862766
0,102251867072765
0,105701692022473
0,109013569327915
0,11214846161875
0,11507906775703
0,117792794096243
0,120293495703784
0,122601775261751
0,124753751170692
0,126798342511444
0,128793254863225
0,130799974943036
0,132878181859353
0,135080048541015
0,13744493164711
0,139994928607801
0,142731717076526
0,145634989812147
0,148662665333654
0,151752903187219
0,154827795841904
0,157798461385028
0,160571135999622
0,163053774469271
0,165162619387357
0,166828200143106
0,16800027146908
0,168651294147795
0,168778189019839
0,168402247893459
0,16756724714577
0,166335966621058
0,164785453143544
0,163001471786863
0,161072649270246
0,159084826904734
0,157116104411209
0,155232974500696
0,153487829557268
0,151917977916683
0,150546152440188
0,149382343694251
0,14842665906221
0,147672810571011
0,147111777974969
0,146735185345912
0,146537969971901
0,146520007740431
0,146686480840665
0,147046919335827
0,147613003132171
0,148395359273641
0,14939971593654
0,150622865611463
0,152048935714422
0,153646459620684
0,155366684165681
0,15714344546824
0,158894802662785
0,160526451853557
0,161936766118552
0,163023138634591
0,163689161508793
0,163852067207
0,163449803616702
0,16244711428673
0,160840053567137
0,158658478092069
0,155966212138633
0,152858771419991
0,149458731335725
0,145909023648679
0,142364622153808
0,138983217152411
0,135915567795437
0,133296252447504
0,131235507259866
0,129812754817738
0,129072285959388
0,129021381140292
0,129630958866134
0,130838635419753
0,132553890255447
0,134664871483225
0,137046259271827
0,139567541093385
0,142101045828153
0,144529132896202
0,146750031725081
0,148681965520068
0,150265357653203
0,151463093269762
0,152258976748939
0,152654672413871
0,15266552889417
0,152315757967106
0,151633462130209
0,150645981827197
0,149375967895885
0,147838485998565
0,146039338968197
0,143974663159431
0,141631729287238
0,138990768967227
0,13602756502508
0,132716493182923
0,12903368775092
0,124960023347974
0,120483653771365
0,115601920306852
0,110322525466145
0,10466395396376
0,0986552007383648
0,092334927483486
0,0857502084500031
0,0789550401953225
0,0720087787629089
0,0649746349328525
0,0579183097403105
0,0509067963951086
0,0440073197552662
0,0372863391320875
0,0308085115308628
0,0246355053374661
0,0188245709086229
0,0134268132718214
0,00848516884974269
0,00403215576591431
8,75369996473137E-05
-0,00334390228781425
-0,00627421694764974
-0,00873353724617907
-0,0107704215714169
-0,0124511135210889
-0,0138575644360197
-0,0150841821858531
-0,0162333838829946
-0,0174101530785248
-0,0187159182429741
-0,020242166215891
-0,0220642702511686
-0,0242360382360884
-0,0267854671353039
-0,0297121235159296
-0,0329864606224478
-0,0365512377826641
-0,0403250397614365
-0,0442077166153975
-0,048087394766639
-0,051848563430727
-0,0553806316112079
-0,0585862909456039
-0,0613890158002699
-0,0637390861852309
-0,0656176278925601
-0,0670383192687303
-0,0680466021973096
-0,0687164399518298
-0,0691448685020808
-0,0694447724127413
-0,0697364650940385
-0,0701387523558521
-0,0707601990308456
-0,0716912971335091
-0,0729981525986529
-0,0747181735609835
-0,0768580686100977
-0,0793942643931767
-0,0822756463160385
-0,0854283323636251
-0,0887620253736364
-0,0921773677167716
-0,0955736543571762
-0,0988562506735322
-0,101943109772363
-0,104769884484227
-0,107293271301009
-0,109492393032657
-0,111368207585073
-0,112941105026907
-0,114247008049386
-0,115332408626093
-0,116248846425124
-0,11704735724414
-0,11777339223564
-0,118462635682507
-0,119138039467072
-0,119808258333433
-0,1204675256995
-0,121096869728797
-0,121666447312759
-0,122138680840781
-0,122471827138864
-0,122623593603203
-0,122554442853274
-0,122230289530648
-0,121624382908851
-0,12071827588499
-0,119501892397867
-0,117972808948625
-0,116134950515624
-0,113996957928668
-0,111570507153996
-0,108868849197642
-0,105905794605793
-0,102695294673732
-0,0992516811978445
-0,095590528705047
-0,0917300091243921
-0,0876925299254624
-0,0835063923147274
-0,0792071828931051
-0,0748386236209199
-0,0704526505276815
-0,0661085671505586
-0,0618712165838627
-0,0578082261243684
-0,0539864891096637
-0,0504681476478864
-0,047306416457177
-0,0445416329787489
-0,0421979264005778
-0,0402808660109886
-0,0387763791996928
-0,0376511271082607
-0,0368544004402654
-0,0363214608248295
-0,0359781173450521
-0,0357462064845476
-0,0355495487914792
-0,0353198966680459
-0,0350023712621378
-0,0345599149610912
-0,0339763577733091
-0,0332578051974044
-0,0324321927345111
-0,0315470060486981
-0,0306653223470496
-0,0298604739668502
-0,0292097564341639
-0,0287876895696102
-0,0286593837959817
-0,0288745606718228
-0,029462726993336
-0,0304299097723293
-0,0317572329230261
-0,0334014663982539
-0,0352975175761125
-0,0373626765395732
-0,0395022847045809
-0,0416163817589959
-0,043606808281802
-0,0453842066903418
-0,0468743736189264
-0,0480234709792759
-0,0488016957229677
-0,049205131610725
-0,0492556496715361
-0,0489988757168841
-0,0485003911215045
-0,0478404655815469
-0,047107727775407
-0,0463922541405204
-0,0457785925282039
-0,0453392346005588
-0,0451290098841749
-0,0451807996473244
-0,0455028668826852
-0,0460779780602995
-0,0468643624273523
-0,0477984251798709
-0,0487990110171043
-0,0497729125050538
-0,0506212396787933
-0,0512462177636546
-0,0515579609151458
-0,0514807813262638
-0,0509586328005217
-0,0499593519552752
-0,0484774433370322
-0,0465352507016031
-0,0441824588957865
-0,0414939726570245
-0,0385663140681784
-0,0355127640778923
-0,0324575411466329
-0,0295293586022611
-0,0268547299025599
-0,0245513970954637
-0,0227222429501854
-0,0214500131293861
-0,0207931238757888
-0,0207827662234448
-0,0214214434238539
-0,0226829981698406
-0,0245141045447621
-0,0268371206252685
-0,0295541253887437
-0,0325519017258167
-0,0357075791654462
-0,0388946179578939
-0,0419888022212702
-0,0448739148193447
-0,0474467903649528
-0,0496214840591199
-0,0513323507119048
-0,052535897035783
-0,053211347035483
-0,053359940316035
-0,0530030612785192
-0,0521793683060417
-0,0509411513366302
-0,0493501894912368
-0,0474734045474833
-0,045378609182448
-0,0431306307095911
-0,0407880527888272
-0,0384007621003027
-0,0360084184817109
-0,0336398908541186
-0,0313136234363324
-0,0290388235310249
-0,0268172995204233
-0,0246457308096825
-0,0225181241765295
-0,0204282056098738
-0,0183715136255812
-0,0163469976864889
-0,0143579803425386
-0,0124124090479724
-0,010522397193411
-0,00870312693044618
-0,00697125206986371
-0,00534299152265755
-0,00383213737232162
-0,00244821336722109
-0,001195008009464
-6,96722671631641E-05
0,000937481847062092
0,00184241424673434
0,00266603097052945
0,00343218799408733
0,00416518573962199
0,00488697502958661
0,00561433589729815
0,00635630799752537
0,00711214308593965
0,00787001618520748
0,00860667497650486
0,00928813116218126
0,00987140932240926
0,0103072756624838
0,0105437791370204
0,010530358715616
0,0102222101864199
0,00958456955372097
0,00859656147832704
0,0072542817181634
0,00557283106439742
0,00358709137399049
0,00135112638437728
-0,00106380617385985
-0,00357253736336771
-0,00608036884811621
-0,00848826928804234
-0,0106985331195687
-0,0126205081968243
-0,0141759874011002
-0,0153038790800909
-0,0159638206994161
-0,0161384756434575
-0,0158343489140196
-0,0150810660865026
-0,0139291728809067
-0,0124466212924739
-0,0107142039448292
-0,00882027379603442
-0,00685513569042726
-0,00490551577617919
-0,00304950311288819
-0,00135231591219834
0,000136823732540066
0,0013865125485443
0,0023835959017996
0,00313222386325441
0,00365165910730516
0,00397305721689777
0,00413551601634206
0,00418174169407571
0,00415370178675452
0,00408862698412201
0,00401568605807539
0,00395359432955918
0,00390933138068794
0,00387804535982209
0,0038441174905909
0,00378325998900531
0,00366543201227419
0,0034582889617999
0,00313083634463739
0,00265694425261085
0,00201839364850043
0,00120716985608019
0,000226788165804078
-0,000907474645805137
-0,00216946848535504
-0,00352409987926022
-0,00493012840068333
-0,00634357183126785
-0,00772140220264042
-0,00902518280738198
-0,0102242955457972
-0,011298439174874
-0,012239139951783
-0,0130501019365232
-0,0137463277214424
-0,0143520527134094
-0,0148976475176031
-0,0154157435284216
-0,0159369173129868
-0,0164853221818926
-0,0170746750837347
-0,0177049910627945
-0,0183604064627697
-0,0190083493673565
-0,0196002078665908
-0,0200735223055234
-0,020355597067617
-0,0203683017536217
-0,0200337217172852
-0,019280233589164
-0,0180485303892143
-0,0162971081777635
-0,0140067537929163
-0,0111836395876275
-0,0078607314175703
-0,00409734273164388
2,31895545739965E-05
0,00439758416852925
0,00890818610395122
0,0134296439362796
0,0178362166470293
0,0220091772266899
0,0258437664378186
0,0292551793643282
0,0321831377296874
0,0345947070364792
0,0364851510848195
0,0378767668343509
0,0388157979773445
0,0393676736922153
0,0396109481081275
0,0396304158539828
0,0395099418377981
0,0393255642047755
0,0391394067086779
0,0389948723629191
0,038913489360957
0,0388936508349351
0,0389113422046594
0,0389227951869136
0,0388688579521694
0,0386807379369455
0,0382866675690923
0,0376189716373219
0,036620983487546
0,035253267823398
0,0334986595324257
0,0313657164728011
0,0288903025692914
0,0261351567403326
0,0231874524951776
0,0201545012266203
0,017157888240697
0,0143264444091998
0,0117885397978986
0,00966423289855493
0,0080578171445282
0,00705127517123845
0,00669908367653908
0,00702471329388237
0,00801904635399551
0,00964080011943029
0,0118189041651699
0,0144566482756637
0,0174373009943557
0,0206308068398578
0,0239011082251734
0,0271136098548575
0,0301423098227975
0,0328761610702701
0,0352242952278187
0,0371198319835724
0,0385221033977523
0,0394172355758242
0,0398171412111204
0,0397570777178476
0,039292010090087
0,0384920800603082
0,037437520366612
0,0362133639147552
0,0349042834074645
0,0335898605825306
0,0323405300832818
0,0312143767717296
0,0302548931186771
0,0294897312502639
0,0289304178329079
0,0285729437836978
0,0283990980072401
0,0283783867253419
0,0284703676791072
0,0286272303614097
0,0287964671329803
0,0289235024527697
0,0289541749335628
0,0288369959606557
0,0285251359859111
0,0279781127922249
0,0271631733963002
0,0260563721441835
0,024643352264202
0,0229198378172363
0,0208918393592273
0,0185755718107569
0,0159970791285547
0,0131915592765113
0,0102023860535801
0,00707983226701398
0,00387951143228095
0,000660571794188817
-0,00251630452651832
-0,00559102508929366
-0,0085062437754986
-0,0112094476775803
-0,0136548644210071
-0,0158050809048426
-0,0176322738411486
-0,0191189704975944
-0,0202582838548277
-0,0210535983661764
-0,0215177183616367
-0,0216715280772464
-0,0215422473324852
-0,0211613970299298
-0,0205626112373641
-0,0197794454960411
-0,0188433327769041
-0,0177818286634992
-0,0166172663018166
-0,0153659107940469
-0,0140376642376369
-0,0126363294508925
-0,0111603959601786
-0,0096042696755833
-0,00795983139601069
-0,00621818203178538
-0,00437141677819244
-0,00241426808093162
-0,000345468727425774
0,00183128875570917
0,00410688372036062
0,00646683201540098
0,0088918751149461
0,0113590340286796
0,0138430209398691
0,0163178626887073
0,0187585639807709
0,0211426277366294
0,0234512572252383
0,0256700899180347
0,0277893550773485
0,029803402936655
0,0317096184215085
0,0335068009261807
0,0351931571672578
0,0367641098326776
0,0382101643306999
0,0395150941786815
0,04065469890949
0,0415963554151804
0,0422995254667923
0,0427173023758725
0,0427989844248079
0,0424935598080081
0,0417538867812091
0,040541263434667
0,038830013509277
0,0366116761668165
0,0338983845260064
0,0307250530664344
0,0271500671615065
0,0232542748972737
0,0191382143264909
0,0149176578031301
0,0107177063534435
0,0066658074069225
0,00288418513140824
-0,000517747871958261
-0,00345039491536741
-0,00584981029468148
-0,00768184920413102
-0,0089442344593454
-0,00966629990477873
-0,00990635596319304
-0,00974682062862302
-0,0092874521905705
-0,00863719076869959
-0,00790524846101597
-0,00719216954942944
-0,00658160401882433
-0,00613349594676051
-0,00587928508225325
-0,00581956262041648
-0,00592442331155171
-0,00613653205509435
-0,00637669302728003
-0,00655149306941696
-0,00656240749311782
-0,00631562202352204
-0,00573175156300685
-0,00475463184600138
-0,00335842496905401
-0,00155240931557601
0,000616992054686603
0,00306716819085362
0,0056832434999457
0,00832470677012163
0,0108342640366145
0,0130482514064382
0,014807816385752
0,0159700134745486
0,0164179665806374
0,0160693260315677
0,0148823847229005
0,0128594042086791
0,0100469213404196
0,00653304084135569
0,00244194952645259
-0,00207390494148856
-0,00684336015744948
-0,011687083745796
-0,016428335122183
-0,0209031699745785
-0,0249693809769994
-0,0285135889789699
-0,0314560610478288
-0,033753020705232
-0,0353964152878339
-0,0364112990798253
-0,0368511634314585
-0,0367916835363499
-0,0363234463578825
-0,0355442698226405
-0,0345517185719306
-0,0334363692135467
-0,0322762847644898
-0,0311330334531279
-0,0300494428434472
-0,0290491289383465
-0,028137693889064
-0,0273053564466718
-0,0265306755783068
-0,0257849563671847
-0,0250368921025652
-0,0242569979357011
-0,0234214274256108
-0,0225148289588173
-0,0215319878311728
-0,0204781038407257
-0,0193676652064357
-0,0182219892552499
-0,0170656011286687
-0,0159217074558721
-0,0148070877662688
-0,0137267692922613
-0,0126688693474689
-0,0115999838784657
-0,010461472631454
-0,00916694335882843
-0,00760117307946145
-0,00562062767210698
-0,00305565626613481
0,000285651603246085
0,0046120460756101
0,0101423176826562
0,0170973772429598
0,0256915370069389
0,0361233641559111
0,0485665098862132
0,0631609306836398
0,0800049118969983
0,0991482769608871
0,120587119140225
0,14426032799408
0,170048102432805
0,197772549864266
0,227200371002665
0,258047527772983
0,289985693162512
0,32265019284317
0,355649074649573
0,388572888613362
0,421004731212752
0,452530105270375
0,482746172261893
0,511270025416728
0,537745686707786
0,561849623564343
0,583294685329101
0,60183246745988
0,617254215104278
0,629390468970633
0,63810972824329
0,643316451963595
0,644948738159695
0,6429760077422
0,637396979068572
0,628238152845003
0,615552941707415
0,599421482106548
0,579951066881265
0,557277044259437
0,531563951634116
0,503006597669906
0,471830779443312
0,438293325287766
0,402681188831993
0,365309382638956
0,326517625478031
0,286665678115078
0,246127449635064
0,205284060166369
0,164516137177906
0,124195693105928
0,0846779756983726
0,04629369534811
0,00934201487431031
-0,0259153613798565
-0,0592587360167466
-0,0905134335878864
-0,119551213145825
-0,146290112266515
-0,170692851291683
-0,192764005356241
-0,212546208399777
-0,230115683931343
-0,245577400619801
-0,259060128269808
-0,270711625358275
-0,280694128999991
-0,289180249319906
-0,296349300588249
-0,302384038810457
-0,307467726341357
-0,311781413436406
-0,315501317189883
-0,318796190364154
-0,321824604058462
-0,324732114748781
-0,327648342015811
-0,33068404128034
-0,333928308850623
-0,33744609778975
-0,341276246977837
-0,345430228505457
-0,349891798609667
-0,354617695526316
-0,359539466932808
-0,364566435150143
-0,369589726500962
-0,374487209564777
-0,379129113066177
-0,383384034694941
-0,387125012955288
-0,390235319047969
-0,392613636528649
-0,394178332481364
-0,394870582413326
-0,394656187287031
-0,393526008844238
-0,391495041557784
-0,388600228818792
-0,384897210415153
-0,380456252074965
-0,375357651429175
-0,369686935609207
-0,363530163248195
-0,356969619208673
-0,350080146993091
-0,342926305901613
-0,335560472900713
-0,328021938532694
-0,320336977582947
-0,312519813524448
-0,304574344934622
-0,29649646477958
-0,288276781001764
-0,279903539186762
-0,271365553994563
-0,262654973328476
-0,253769725103542
-0,244715527871267
-0,235507380443156
-0,226170479377804
-0,216740544610444
-0,207263561206532
-0,197794968463068
-0,188398346285863
-0,179143663334893
-0,170105162603249
-0,161358968683565
-0,152980507741581
-0,145041836654818
-0,137608982013687
-0,13073939249365
-0,124479608885501
-0,118863253984576
-0,113909438644803
-0,109621669761401
-0,105987330167916
-0,102977779270481
-0,100549097076935
-0,0986434640918177
-0,0971911368922582
-0,0961129460818752
-0,0953232120916794
-0,094732947392659
-0,0942531934045856
-0,0937983286850398
-0,0932891832104867
-0,092655802341563
-0,0918397231608866
-0,090795654233907
-0,08949248557651
-0,0879135962379696
-0,0860564694711848
-0,0839316668545975
-0,0815612499034286
-0,078976768000913
-0,0762169527746288
-0,0733252699918271
-0,0703474801626793
-0,0673293486955222
-0,0643146268493336
-0,0613433977736742
-0,0584508500153513
-0,0556665066805029
-0,0530139047080866
-0,0505106879537788
-0,0481690521567499
-0,0459964609515884
-0,0439965408349323
-0,0421700596675507
-0,0405158974925207
-0,0390319292010952
-0,037715754481206
-0,0365652298234298
-0,0355787783125875
-0,0347554737060145
-0,0340949143055856
-0,0335969180378972
-0,0332610820727312
-0,0330862576967988
-0,0330699939429601
-0,0332080019167171
-0,0334936864717493
-0,0339177836763225
-0,0344681323364226
-0,0351295967066168
-0,0358841463598435
-0,0367110888434613
-0,0375874418566732
-0,038488424708357
-0,0393880439437091
-0,0402597452967983
-0,0410771033299971
-0,0418145209439083
-0,0424479129461678
-0,0429553505995221
-0,0433176470750767
-0,0435188666277672
-0,0435467428323007
-0,043392993224195
-0,043053519201324
-0,0425284812238708
-0,0418222404859921
-0,0409431596843764
-0,0399032576711521
-0,0387177160255132
-0,0374042401668087
-0,0359822836957714
-0,0344721521185274
-0,0328940106898675
-0,0312668302987562
-0,0296073144056434
-0,0279288581652852
-0,0262405970960076
-0,0245466060644667
-0,0228453091191053
-0,0211291562235572
-0,0193846138927656
-0,0175925031633863
-0,0157287006781298
-0,0137651977767114
-0,0116714895611794
-0,00941624244297064
-0,00696916636194378
-0,00430299842584784
-0,00139548980996485
0,00176872120382767
0,00519646911672552
0,00888476742362697
0,012819961172285
0,0169774053244101
0,0213217216059321
0,0258076550677077
0,0303815172949214
0,0349831681939901
0,0395484547793282
0,0440119955118743
0,0483101744628507
0,0523841924649753
0,0561830136626655
0,0596660460952525
0,0628054042722479
0,0655876196740751
0,0680146908130731
0,070104396541587
0,071889832996972
0,073418173983484
0,0747486946431591
0,0759501368891653
0,0770975302795719
0,0782686120057334
0,0795400129343355
0,0809833919775924
0,0826617076599497
0,0846258132022997
0,0869115497662199
0,0895374921359522
0,0925034729009881
0,0957899763528602
0,0993584533463526
0,103152565101187
0,107100319310244
0,111117018063753
0,11510889609358
0,118977291718721
0,122623163465346
0,125951744237671
0,128877113345356
0,131326465463175
0,133243865051548
0,134593294728206
0,135360835873629
0,135555858213239
0,13521114060803
0,134381895782549
0,13314372490908
0,131589581293374
0,129825873251973
0,127967882010661
0,126134708636052
0,124443992428381
0,123006660066519
0,121921968762407
0,121273097054063
0,121123513535033
0,121514317445225
0,122462696963706
0,123961593334659
0,125980594329956
0,128468012319606
0,131354034090194
0,134554765527726
0,137976938376536
0,141523002351336
0,145096297282591
0,148605989382328
0,151971464819727
0,155125903127011
0,158018801706542
0,160617288707255
0,162906141225744
0,164886514393751
0,166573478670996
0,167992551178172
0,169175485572514
0,170155647463871
0,170963343180088
0,171621484592879
0,172141959213115
0,172523032415812
0,172748039256513
0,172785530910054
0,172590931386664
0,172109641618128
0,171281409163323
0,170045672042879
0,16834749367019
0,166143640562606
0,163408321776994
0,160138112730265
0,156355627347289
0,152111579434278
0,147484981933152
0,142581363756961
0,137529028584303
0,132473527287907
0,127570654062064
0,122978394741838
0,118848344572975
0,115317164349001
0,112498653754823
0,110476987643452
0,109301586921876
0,108983986123399
0,109496922826735
0,110775720249514
0,112721875324899
0,11520861243893
0,118088029222911
0,12119935524399
0,124377774694384
0,127463234896424
0,130308675062737
0,132787162438943
0,134797510847869
0,136268072323518
0,137158526622751
0,137459635529218
0,13719106832639
0,136397531594047
0,135143541840662
0,133507256747994
0,131573825620703
0,129428730336829
0,127151565531004
0,124810654252722
0,122458818154353
0,120130526204381
0,117840540601115
0,115584070938857
0,113338345318492
0,111065416741662
0,108715950199689
0,106233684255381
0,103560232729836
0,100639887728039
0,0974241034284627
0,0938753781231998
0,0899703061459804
0,0857016369612887
0,0810792508341025
0,0761300340763315
0,0708967071187893
0,0654357213301225
0,0598143921678808
0,0541074743472132
0,0483934077517353
0,042750470282897
0,037253066251249
0,031968357645958
0,026953412813255
0,022253005468653
0,0178981496841509
0,0139054068421049
0,0102769518299137
0,00700134105428826
0,00405488684590394
0,00140351365359053
-0,000995047480112051
-0,0031888776031557
-0,00522945020243498
-0,00716930877429656
-0,00905995577975438
-0,0109500394238757
-0,0128838931982765
-0,0149004505730168
-0,0170325263716164
-0,0193064296932004
-0,0217418528478997
-0,0243519680909335
-0,0271436597143652
-0,0301178232147367
-0,0332696749567059
-0,0365890334071254
-0,0400605545138585
-0,0436639265979372
-0,047374051593867
-0,0511612570439001
-0,0549915947656219
-0,0588272859608516
-0,0626273678822431
-0,0663485840373753
-0,0699465391866733
-0,0733771138066264
-0,0765981026543235
-0,0795710114683625
-0,0822629177770427
-0,0846482792932983
-0,0867105591192478
-0,0884435330057149
-0,0898521514113793
-0,0909528482809409
-0,091773218498658
-0,0923510249962307
-0,0927325418246795
-0,0929702877054412
-0,0931202519152845
-0,0932387569438911
-0,0933791366176826
-0,0935884312354067
-0,0939043105379552
-0,0943524298224122
-0,0949444042148589
-0,0956765521309483
-0,0965295135248408
-0,0974687947556225
-0,098446233581019
-0,0994023190810274
-0,100269246386975
-0,10097453883906
-0,101445033916232
-0,101611006394762
-0,10141019413522
-0,100791498959223
-0,0997181564454537
-0,0981702023223251
-0,0961461067648388
-0,0936634980259204
-0,0907589498092989
-0,0874868589483947
-0,0839174878713661
-0,0801342871075989
-0,0762306445058002
-0,0723062285832541
-0,0684631030395148
-0,0648017884368754
-0,0614174365903917
-0,0583962652032783
-0,0558123769834241
-0,0537250613185213
-0,0521766499110226
-0,0511909726078999
-0,0507724375472947
-0,0509057415755629
-0,051556202927283
-0,0526706979620316
-0,0541791763667888
-0,0559967232776865
-0,0580261307222658
-0,0601609331097426
-0,0622888510145307
-0,0642955734729123
-0,0660687913815219
-0,0675023740328578
-0,0685005587509768
-0,0689820021066758
-0,0688835228446822
-0,0681633542919736
-0,0668037204020642
-0,064812557149574
-0,0622242214537333
-0,0590990639814547
-0,0555217896827833
-0,0515985891438024
-0,0474530919042474
-0,0432212658006319
-0,0390454592584568
-0,0350678508397711
-0,0314236267341975
-0,0282342470398763
-0,0256011812695723
-0,0236004893938557
-0,0222785953792289
-0,0216495459011262
-0,0216939699472395
-0,0223598594710967
-0,0235651828677486
-0,0252022288254643
-0,0271434658782375
-0,0292486007522103
-0,0313724339714573
-0,0333730507674277
-0,0351198541592063
-0,0365009481895801
-0,037429413468693
-0,0378480827600136
-0,0377325173417633
-0,0370919992356228
-0,0359684823630572
-0,0344335784229999
-0,0325837814747458
-0,0305342497828846
-0,0284115562720708
-0,0263458833622913
-0,024463169407314
-0,0228777103044364
-0,0216856814673727
-0,020959975204411
-0,0207466518999826
-0,0210631874365232
-0,0218985726042582
-0,0232151921173833
-0,0249522906161768
-0,0270307293153235
-0,0293586570750442
-0,0318376690357708
-0,034369007712683
-0,0368593762503442
-0,0392259794920306
-0,0414004814084813
-0,0433316610235945
-0,0449866555662332
-0,0463507905962572
-0,0474261035820247
-0,0482287616177952
-0,0487856486800408
-0,0491304477018569
-0,0492995646772436
-0,0493282351663055
-0,0492471195605252
-0,0490796360639457
-0,0488402051971011
-0,0485334937016363
-0,0481546566924118
-0,0476904924849996
-0,0471213517786553
-0,0464235876206855
-0,0455722988897284
-0,0445441099198066
-0,0433197421711861
-0,0418861682039686
-0,0402381894670881
-0,0383793419778921
-0,0363221013799415
-0,034087424460297
-0,0317037217529137
-0,0292054001255619
-0,0266311415841138
-0,0240220930576373
-0,0214201318195712
-0,0188663445160345
-0,0163998182320723
-0,0140567946165995
-0,0118701884479552
-0,0098694258938678
-0,00808052027165216
-0,00652627845745779
-0,00522652176755147
-0,00419821193810197
-0,00345539466585332
-0,0030089072381574
-0,00286583887270317
-0,003028777348586
-0,00349491784618569
-0,00425514437063045
-0,005293216300592
-0,00658519940743873
-0,00809927074793172
-0,00979600061014315
-0,0116291744992129
-0,0135471678699651
-0,015494831047143
-0,0174157872608647
-0,0192549987713675
-0,0209614198906943
-0,0224905354404316
-0,0238065813705345
-0,0248842615892084
-0,0257098103267358
-0,0262812995142841
-0,0266081512074949
-0,0267098804221016
-0,0266141578353257
-0,0263543387144906
-0,0259666489443716
-0,0254872471662129
-0,0249493914009432
-0,0243809285348542
-0,0238022969089497
-0,0232251888600543
-0,0226519656016742
-0,0220758563736956
-0,021481912739923
-0,020848632489846
-0,0201501203210754
-0,0193586177943693
-0,0184472150170714
-0,017392551756718
-0,0161773253554703
-0,0147924448935029
-0,013238702515392
-0,0115278702103032
-0,00968316996348923
-0,00773910372303761
-0,00574066430300565
-0,00374197722630698
-0,00180444564851113
5,51419270851812E-06
0,00161905033192409
0,0029676641380638
0,00398610880207213
0,00461529547546151
0,00480510627784273
0,00451701416057316
0,00372641010491213
0,00242453897025967
0,000619947645018637
-0,00166064544353527
-0,00437214029849196
-0,00745156937961303
-0,0108193769044289
-0,0143814740001547
-0,0180320430930875
-0,0216570229338821
-0,0251381615113262
-0,0283574812108099
-0,031201962746873
-0,0335682255018398
-0,0353669654503275
-0,0365269105057734
-0,0369980684622963
-0,0367540748192723
-0,0357934952498481
-0,0341399973791332
-0,0318413746055737
-0,0289674757295325
-0,0256071623964633
-0,0218644761504747
-0,0178542431185518
-0,0136973730379784
-0,00951611808796602
-0,00542954516496383
-0,0015494442341389
0,00202315167727991
0,00520071764150935
0,00791120580119927
0,010099241848066
0,0117266147250132
0,0127721689180799
0,0132312359477346
0,0131147503438433
0,012448185387703
0,0112704172477969
0,00963258677848816
0,00759698166494666
0,00523591418386134
0,00263052824509509
-0,000130560325766343
-0,00295289925730469
-0,00573821327552617
-0,0083868705281323
-0,0108008311220309
-0,0128870465172706
-0,0145612098066021
-0,0157516875107115
-0,0164034017420673
-0,0164813855255164
-0,0159737106975681
-0,0148934921496175
-0,0132797066685735
-0,0111966286675757
-0,00873177493898676
-0,0059923595806293
-0,00310037934438981
-0,000186568217179527
0,00261643324046779
0,00518126414734513
0,00739290314465832
0,0091551058398158
0,0103957514587009
0,0110706989395377
0,0111658578373963
0,0106973129659325
0,00970949257871019
0,00827152500158971
0,00647207410154729
0,00441306641485302
0,0022028106385208
-5,09450889186809E-05
-0,00224747580194082
-0,00429857111351586
-0,00613265933774849
-0,00769729857011447
-0,00895992255977246
-0,00990689165765411
-0,0105410549935412
-0,0108781643246797
-0,0109425796441468
-0,010762761821087
-0,0103670527066224
-0,00978019759202582
-0,00902097300148139
-0,00810115354313895
-0,00702589780449344
-0,00579547055099847
-0,00440806338612695
-0,00286334467605436
-0,00116627587611526
0,000669314174307576
0,00261789720368996
0,00464059353978881
0,00668502662043412
0,00868686007133712
0,010573018568574
0,0122664113863809
0,0136918060357036
0,0147823563217439
0,0154861897036579
0,0157724142668381
0,0156359220413311
0,0151004431031272
0,0142194382149784
0,0130745955452269
0,0117719035791323
0,0104354889967386
0,00919961501969326
0,00819941313410521
0,00756105223314227
0,00739212124831738
0,00777300674298566
0,00874998431404987
0,0103306167726034
0,0124818735856615
0,0151311703756377
0,0181702932035406
0,0214619403480232
0,0248484044973603
0,0281617487746263
0,0312347151161158
0,0339115525285278
0,0360579691712307
0,0375694935545267
0,0383776682202322
0,038453681086273
0,0378092486542202
0,0364947830013815
0,0345950821833106
0,0322229640828144
0,0295114025634931
0,0266048118724942
0,0236501553572984
0,0207885277236217
0,0181477812377805
0,0158366448448113
0,0139406337845656
0,0125198806897465
0,011608852659329
0,0112177669751359
0,0113353934545064
0,0119328432807558
0,0129678981606495
0,0143894312911716
0,0161415104177712
0,0181668470931801
0,020409356198653
0,0228157050383577
0,025335850237965
0,0279226719437246
0,030530908361117
0,0331156615758743
0,0356307826521913
0,0380274480336679
0,0402532111947008
0,0422517570840176
0,0439635082721242
0,045327138790059
0,0462819532198019
0,046770993752998
0,046744655080102
0,0461645232819914
0,0450071157539624
0,0432671877488768
0,0409602882668456
0,0381242922072714
0,0348197033583207
0,0311286084899961
0,027152259836652
0,0230073641037434
0,0188212531235998
0,0147261971092073
0,0108531896818354
0,00732557943749578
0,0042529423444985
0,00172558126773633
-0,000189996146816562
-0,00145432969117284
-0,00205677758764929
-0,00201569005403276
-0,00137697265312859
-0,000211131159363079
0,00139101199543597
0,00332365430675113
0,00547206104723457
0,00771893972663908
0,00995074005846151
0,0120634893211737
0,0139678105248558
0,015592832022029
0,0168887776143189
0,0178281199505875
0,0184052802361444
0,018634956783463
0,0185492565678157
0,0181938812359901
0,0176236765853406
0,0168978885392275
0,0160754770474592
0,0152108220302032
0,0143501142671129
0,0135286626056267
0,0127692720222205
0,0120817610532068
0,0114635985444903
0,0109015552791912
0,0103741920716349
0,00985494766283459
0,00931555123526166
0,00872946792985867
0,00807509210688256
0,00733843110466548
0,00651506924703813
0,0056112637354158
0,00464409574298509
0,00364067582099445
0,00263647672641487
0,00167293346998513
0,000794504825543377
4,54289474320012E-05
-0,000533574418771645
-0,000908402465878238
-0,00105423491135064
-0,000957569283676599
-0,000617479042349334
-4,60081919117322E-05
0,00073231816581744
0,00168182200780872
0,00275773291640963
0,0039088229600675
0,00508041944641719
0,00621757636963933
0,00726817986215739
0,00818577465428228
0,00893192612338863
0,00947797345455582
0,00980608016183947
0,00990954445831048
0,00979238909846838
0,0094683036652707
0,00895905766819233
0,00829253671249306
0,00750057398972863
0,00661675420508135
0,00567435691517898
0,00470458257125987
0,00373516993687501
0,00278947153075832
0,00188600845880071
0,00103848177381004
0,000256178433302298
-0,000455320472275501
-0,00109324075423302
-0,00165664360293594
-0,00214549375581961
-0,00255986238574885
-0,00289933365276698
-0,00316265229399819
-0,00334761640948539
-0,00345118870620817
-0,00346977452738117
-0,00339959883562494
-0,00323710871855108
-0,00297933336911104
-0,00262414893195583
-0,00217041886539221
-0,00161800826206079
-0,000967698954685682
-0,000221057038906363
0,00061967818948628
0,00155160802787332
0,00257102051635248
0,00367301677168257
0,00485089488784784
0,00609530686037841
0,00739324631892795
0,00872696629141991
0,010072961271791
0,0114011712386449
0,0126745726473203
0,0138493098822984
0,0148754892580133
0,0156987075997436
0,0162623221436323
0,0165103933617971
0,0163911543759399
0,0158607877203998
0,0148872304732224
0,0134536895739085
0,0115615363812083
0,00923226695503403
0,00650826315543564
0,00345216748867931
0,000144786768612148
-0,00331844151454052
-0,00683226036838661
-0,010287400339869
-0,0135769940030992
-0,0166031284066748
-0,0192830194083171
-0,0215542858610613
-0,0233788391277567
-0,0247449835919159
-0,0256674421153691
-0,026185168731451
-0,0263569783342819
-0,0262551967592677
-0,0259577005279474
-0,0255388599192408
-0,0250600095622291
-0,024560137478192
-0,0240474998349928
-0,023492831889643
-0,022824737224008
-0,0219277030413303
-0,0206430184042605
-0,0187726772094752
-0,0160861428589944
-0,012329652286021
-0,00723755823144173
-0,00054506386615551
0,00799839608842861
0,0186159212696984
0,0314908441664622
0,0467560839832065
0,0644857661765843
0,0846895645571048
0,107310040376203
0,13222305515874
0,159241136100714
0,188119489211704
0,218564199347838
0,250242038656988
0,282791233417308
0,315832517603111
0,348979829662007
0,381850082819676
0,414071551246756
0,445290554204732
0,475176275634095
0,503423714424268
0,529754908014786
0,553918697492381
0,575689396751423
0,594864785256174
0,611263860645484
0,624724764513704
0,635103236232498
0,642271862626834
0,646120284795853
0,646556407857699
0,643508545595692
0,636928330023452
0,626794134196719
0,613114701440759
0,595932648898563
0,575327518438767
0,551418080981543
0,524363656356281
0,494364282979222
0,461659652087751
0,426526801783494
0,389276639267618
0,350249419266552
0,309809348720913
0,268338510591165
0,226230303888274
0,183882585691174
0,141690678719418
0,100040380776686
0,0593010861726806
0,0198191096335001
-0,0180887055745107
-0,0541410092606234
-0,088097492233562
-0,119763829145486
-0,148995851057008
-0,175702749272017
-0,199849086736333
-0,221455383535189
-0,240597055279721
-0,257401522183816
-0,272043374410217
-0,28473757459658
-0,295730796816035
-0,305291134645056
-0,313696548924994
-0,32122255574385
-0,328129763911835
-0,334651946164044
-0,340985358802948
-0,347280002927549
-0,353633443423189
-0,360087670869759
-0,366629312928189
-0,373193286689905
-0,379669747183137
-0,385913947681536
-0,391758404177422
-0,397026568398886
-0,401547078241683
-0,405167584839833
-0,407767160215471
-0,409266371029585
-0,40963425859187
-0,408891682848902
-0,407110752970732
-0,404410359277412
-0,400948117866596
-0,396909316659818
-0,39249368712286
-0,387901000068283
-0,383316581908096
-0,37889786073241
-0,374762977763567
-0,370982344253175
-0,367573798678955
-0,364501741822449
-0,361680319947467
-0,358980413355634
-0,356239894021894
-0,353276365187828
-0,349901407570535
-0,345935245927673
-0,34122072450438
-0,335635541752462
-0,329101838019139
-0,321592442507527
-0,313133350060622
-0,30380229268422
-0,293723571465906
-0,28305959780718
-0,27199983652087
-0,26074802885679
-0,24950868725146
-0,238473888093012
-0,227811342905864
-0,217654607533611
-0,208096104380417
-0,199183400633587
-0,190918925101936
-0,183263039095978
-0,176140123772818
-0,169447127008948
-0,163063843286446
-0,156864091939735
-0,150726918783859
-0,144546974432972
-0,138243314757067
-0,131766015342598
-0,125100178958124
-0,118267126670488
-0,111322781929272
-0,104353465440543
-0,09746950129005
-0,0907971788033626
-0,0844697108677682
-0,0786178730844131
-0,073360998684504
-0,0687989454491032
-0,0650055503129873
-0,0620239551554381
-0,0598640355514399
-0,0585020057017929
-0,0578821197157561
-0,0579202528927234
-0,058509035383879
-0,0595241307385155
-0,0608312064278864
-0,0622931326353082
-0,0637769668433393
-0,0651603302828411
-0,0663368517832859
-0,0672204377854596
-0,0677482169091309
-0,0678820966165753
-0,0676089523573088
-0,0669395416191894
-0,0659062936025724
-0,0645601683685674
-0,0629668072758765
-0,0612022103524403
-0,0593481778008671
-0,0574877442707179
-0,0557008180781808
-0,0540602151972532
-0,0526282511146998
-0,0514540236135286
-0,0505714868481942
-0,0499983819870163
-0,0497360524589451
-0,0497701327364289
-0,0500720592858214
-0,050601311904408
-0,051308254837475
-0,0521374119878401
-0,0530309817692122
-0,0539323774238351
-0,0547895704738883
-0,0555580204666027
-0,0562029945287436
-0,0567011155875155
-0,0570410272501523
-0,057223123720727
-0,0572583609352236
-0,0571662354237425
-0,0569720846964844
-0,0567039213856665
-0,056389057507636
-0,0560508003896218
-0,0557055048267862
-0,0553602453638462
-0,0550113288278915
-0,0546438029434258
-0,0542320367072847
-0,0537413583905008
-0,0531306450341677
-0,0523556710199275
-0,0513729505514162
-0,0501437565199171
-0,0486379716160907
-0,0468374298921079
-0,0447384390680859
-0,0423532338048609
-0,0397101936034612
-0,0368527592551821
-0,0338370906269393
-0,0307286166915895
-0,0275977267359194
-0,0245149307330099
-0,0215458697758539
-0,0187465789837901
-0,0161593930365333
-0,0138098388137578
-0,0117047839963621
-0,00983201084877989
-0,00816126910165994
-0,00664674045045811
-0,00523073010178607
-0,00384829799916317
-0,00243246277758864
-0,000919562006773684
0,000745662680911795
0,00260566609242988
0,00468674098014716
0,00699697119409718
0,0095256599385681
0,0122442760222903
0,0151088371904184
0,0180635330612405
0,0210452905439121
0,0239889101648108
0,0268323585101452
0,0295217933288919
0,0320159241116168
0,0342893695829702
0,0363347592199309
0,0381634310922622
0,0398046939920696
0,0413037380720913
0,0427183853783099
0,0441149608496317
0,0455636284567101
0,0471335711748674
0,0488883952065748
0,0508821086886887
0,0531559663242038
0,0557363894556183
0,0586340736004929
0,061844291003262
0,0653482935499735
0,0691156301851497
0,0731071205833868
0,0772781792149275
0,0815821649538063
0,0859734422082585
0,0904098789081622
0,0948545706672342
0,0992766630990712
0,103651238006515
0,10795832543823
0,112181193656754
0,116304144685873
0,120310097350922
0,12417826745557
0,127882253219614
0,131388803008731
0,134657484126538
0,137641390707859
0,140288932360776
0,142546641317761
0,144362833555254
0,145691867544413
0,146498671386232
0,146763161805499
0,146484161692055
0,145682438882577
0,144402537338924
0,142713149739828
0,140705882255918
0,13849238030639
0,136199909365525
0,133965607569296
0,131929737152532
0,130228350670129
0,128985848018924
0,128307926181503
0,128275412610709
0,128939425336214
0,130318221119152
0,132395982882871
0,135123666959937
0,138421888892349
0,142185683944725
0,146290845671885
0,150601432712286
0,154977948916948
0,159285651439712
0,163402429424523
0,167225723526317
0,170678021895473
0,173710566862016
0,176305031340634
0,17847306602492
0,180253767524974
0,181709263021653
0,182918738325431
0,183971344005709
0,184958490837434
0,185966085742522
0,187067259967217
0,188316102504089
0,189742836742163
0,191350772530456
0,193115237135025
0,19498454632734
0,196882931499682
0,198715200784206
0,200372791667563
0,201740778131206
0,202705333625878
0,20316112635807
0,203018136871279
0,20220743827326
0,200685562447831
0,198437184537318
0,195475984272373
0,191843676532348
0,187607334480233
0,182855246779097
0,177691646856854
0,172230719963565
0,16659032820228
0,160885893004975
0,155224839687274
0,149701943663865
0,144395828944137
0,139366764902903
0,13465579645547
0,130285135413403
0,126259646186988
0,122569185007121
0,119191504293314
0,116095415877768
0,113243918903632
0,110597037781058
0,108114177449142
0,105755880076701
0,103484950596828
0,101266998904934
0,0990705154404202
0,0968666467953763
0,0946288636068779
0,092332711718499
0,0899558097711954
0,0874782054107166
0,0848831342312378
0,0821581485900274
0,0792965069059496
0,0762986476765761
0,0731735250236884
0,0699395611551604
0,0666249800430877
0,063267326964481
0,0599120479183251
0,056610095426501
0,0534146340836105
0,0503770294766498
0,0475424057342018
0,044945138156257
0,042604697746003
0,0405222761901336
0,0386785887982644
0,0370331790946653
0,0355254366209338
0,03407739772212
0,0325982397887618
0,0309902172500889
0,0291556382378723
0,0270043595322952
0,0244611973970893
0,0214726230738018
0,0180121393286246
0,0140838186520736
0,00972361910695192
0,0049982699414992
1,72117135672372E-06
-0,00515063837280323
-0,0103295906629872
-0,0154009521083573
-0,0202349938386156
-0,0247156561829059
-0,0287487958525241
-0,0322687727561966
-0,0352428144593638
-0,037672779289194
-0,0395941582761274
-0,0410723921906276
-0,0421968117716932
-0,0430727158406529
-0,0438122645100406
-0,0445249681642963
-0,0453085876562587
-0,0462412238720886
-0,0473752686574496
-0,0487337236173162
-0,0503091834117097
-0,0520655448869978
-0,0539422639106871
-0,0558607596609097
-0,0577323811497107
-0,0594672192277153
-0,0609829804861948
-0,0622131426148131
-0,0631136827736018
-0,0636678040067588
-0,0638882668729486
-0,0638171472483604
-0,0635230671284421
-0,0630961628995187
-0,062641245854194
-0,062269756435187
-0,0620912048486631
-0,0622048196704233
-0,0626920919158384
-0,0636108096106566
-0,0649910369541447
-0,0668333166403414
-0,0691091802502769
-0,0717638573930057
-0,0747208963451665
-0,0778882621595264
-0,0811653739657231
-0,0844504886315871
-0,0876478355163588
-0,0906739543447016
-0,0934627787066364
-0,095969131174559
-0,0981704401193535
-0,100066639410147
-0,101678356989089
-0,103043624912461
-0,10421344239216
-0,105246588379492
-0,10620410850859
-0,107143893580784
-0,108115727124747
-0,109157114471387
-0,110290123411403
-0,111519375879537
-0,112831239951457
-0,114194189466664
-0,115560230712989
-0,116867245520017
-0,118042069163479
-0,119004108691763
-0,11966930983343
-0,119954294278089
-0,119780508988066
-0,119078250446182
-0,117790445270368
-0,115876081572815
-0,113313191589732
-0,110101285978652
-0,106263135916386
-0,101845794198135
-0,0969207451489762
-0,0915830797009117
-0,0859496102538307
-0,0801558725995274
-0,0743520101672389
-0,0686975980318691
-0,0633555373024935
-0,0584852294096937
-0,0542353176572337
-0,0507363523788847
-0,0480937881783374
-0,0463817497046164
-0,0456380003801482
-0,0458605128955781
-0,0470059703186941
-0,0489904247041176
-0,0516922116047555
-0,0549570722542775
-0,0586052809983538
-0,0624404258839297
-0,0662593576202468
-0,0698627181989091
-0,0730653952983833
-0,0757062294177342
-0,0776563311944714
-0,0788254462244888
-0,0791659294475543
-0,0786740523946006
-0,0773885526021997
-0,0753865311461848
-0,0727769961265234
-0,0696925216577517
-0,066279629448444
-0,0626885919020618
-0,0590633939540141
-0,0555325720787505
-0,0522015741698268
-0,0491471591987194
-0,0464141907195587
-0,0440149868703033
-0,0419311872456315
-0,0401179005223873
-0,0385097221804583
-0,0370280733099173
-0,0355892204911971
-0,0341123001097539
-0,03252669056999
-0,0307781501861118
-0,0288332598609652
-0,0266818668717419
-0,0243374050306871
-0,0218351513143658
-0,0192286536596033
-0,0165847139918982
-0,0139774221800249
-0,0114818015594143
-0,00916764027167103
-0,0070940450200646
-0,00530516956205894
-0,00382744815767105
-0,00266851627230019
-0,00181784123313804
-0,00124892914700307
-0,000922835440234606
-0,000792597222671802
-0,000808135540972617
-0,000921149891155479
-0,00108954720371688
-0,00128100967243288
-0,00147540317419635
-0,00166585027564344
-0,00185842657014685
-0,00207057303329985
-0,00232843734024498
-0,00266345246616978
-0,00310852285747379
-0,0036942120174903
-0,0044453093198958
-0,00537810108213016
-0,00649858769887551
-0,00780178418040953
-0,00927212681617518
-0,0108848957108332
-0,0126084629483187
-0,0144070988994879
-0,01624402187355
-0,0180843629735189
-0,0198977390411597
-0,0216601789427475
-0,023355225879902
-0,0249741323048982
-0,0265151641709776
-0,0279821270556425
-0,0293823082244901
-0,0307240876760211
-0,0320145018420377
-0,0332570432213064
-0,0344499483218371
-0,0355851686761971
-0,0366481418224836
-0,0376183895486088
-0,0384708790351779
-0,0391779985226637
-0,0397119316522916
-0,0400471706925345
-0,0401628929886946
-0,0400449387166288
-0,0396871698204517
-0,0390920554230486
-0,0382704111320043
-0,0372403099263574
-0,0360252713005959
-0,034651913824573
-0,0331473160787283
-0,0315363658010325
-0,0298393833431387
-0,0280702823287596
-0,0262354799066255
-0,0243336960539603
-0,0223566931249669
-0,0202909118959336
-0,0181198680222581
-0,0158270921607767
-0,0133993359631329
-0,0108297307716054
-0,00812057974059287
-0,00528548813619443
-0,00235058869878033
0,00064530542832088
0,00365169536324954
0,00660851320210967
0,00944923518038161
0,0121047752245654
0,0145078700284502
0,0165976180072203
0,0183238139949231
0,0196507310353906
0,0205600391869569
0,0210526154836352
0,0211490835343407
0,0208890185041827
0,0203288552609751
0,0195386359377392
0,0185978200941963
0,0175904493580915
0,0166000037435909
0,0157043057422302
0,0149708199720537
0,0144526620060857
0,0141855734722016
0,0141860466632197
0,0144506970149911
0,0149568927992602
0,0156645650977299
0,0165190440023209
0,0174547043294725
0,0183991598782397
0,0192777216991594
0,0200178334641853
0,0205532147287274
0,0208274779349213
0,0207970336552728
0,0204331561188522
0,019723142577332
0,0186705606161712
0,0172946327086503
0,0156288535753139
0,0137189707292821
0,0116204806804029
0,00939580254856271
0,00711128836409835
0,00483421709761429
0,0026299000824551
0,000559002004909757
-0,0013248430293912
-0,00297706396882563
-0,00436379695810078
-0,00546311888686319
-0,00626585733844513
-0,00677596836697668
-0,00701047436666516
-0,00699895347717146
-0,0067825716813976
-0,00641265129857683
-0,00594877693131625
-0,00545645348270978
-0,00500435119397018
-0,00466119931352365
-0,00449242147300644
-0,00455663963329925
-0,00490220618757396
-0,00556395164101392
-0,00656035412971062
-0,00789134318149025
-0,00953694047350968
-0,0114569129962233
-0,013591568577754
-0,0158637613772567
-0,0181820988062795
-0,0204452560511675
-0,0225472161181091
-0,0243831691725461
-0,0258557324310428
-0,026881098239199
-0,0273946895676036
-0,0273559036953443
-0,0267515589009695
-0,0255977255028722
-0,0239397188066134
-0,0218501518470076
-0,0194250822542454
-0,0167784301847524
-0,0140349818705681
-0,0113224145612572
-0,00876287265798661
-0,00646468262673764
-0,00451480921342268
-0,0029726242843054
-0,0018654826450654
-0,00118648065011909
-0,000894621189424201
-0,000917433709871406
-0,00115591363096373
-0,00149146643789505
-0,0017943825000104
-0,00193324277759234
-0,00178457404393459
-0,00124204280004361
-0,00022450313890298
0,00131770560108026
0,00339868612148946
0,00599544171956617
0,00904897832688619
0,0124679581294376
0,0161346154241463
0,0199124709815999
0,0236552444078885
0,0272162763189532
0,0304577409861014
0,0332589580439252
0,0355231964667709
0,0371824979614397
0,0382002185827697
0,0385711818833041
0,0383195373175318
0,0374946066119362
0,0361651619425851
0,0344126992025428
0,0323243372345525
0,029985984144092
0,0274763644301965
0,0248624004748974
0,0221962986436685
0,0195145173985725
0,0168386086340978
0,0141777413701089
0,011532555938376
0,00889987193041541
0,00627769602020624
0,00366995345163965
0,00109040143893605
-0,0014347295107189
-0,00386568781444441
-0,00614990358628951
-0,00822441858694063
-0,0100198411883428
-0,0114654645036141
-0,0124950610068488
-0,0130527894268866
-0,0130986274265205
-0,0126127791446627
-0,0115985971021009
-0,0100836948416569
-0,00811909693070881
-0,0057764602190273
-0,00314358620069562
-0,000318610726272235
0,00259661247405057
0,00550333711319425
0,00831233806976501
0,01094933059422
0,0133589070799835
0,0155066471263339
0,0173792351020282
0,0189826153782168
0,0203384094992146
0,0214789924590534
0,022441759464944
0,0232631962822302
0,0239733867065239
0,0245915471499377
0,0251230743791843
0,0255584377760921
0,0258740570338479
0,0260350986038289
0,0259999201699463
0,0257257125215712
0,0251747509656529
0,0243205883878365
0,0231535082933578
0,0216846112770808
0,0199480281472811
0,0180009267487104
0,0159211911446252
0,0138028810745916
0,0117498042252765
0,00986773167449033
0,00825593800747203
0,00699883640410741
0,00615849563743331
0,00576876745581735
0,00583162347814422
0,00631611168214438
0,00716011082464193
0,00827480800234053
0,00955157367622719
0,0108706834248628
0,0121111578995903
0,0131608790127196
0,013926102481324
0,014339528620167
0,0143662114321726
0,0140067701463205
0,0132976008172888
0,0123080472184821
0,011134756259489
0,00989368938790488
0,00871046563101088
0,00770985586803094
0,0070053189023659
0,00668946213093908
0,00682622443359235
0,00744542477484843
0,00854011154101768
0,0100669041063184
0,0119492618046659
0,0140833692768966
0,0163461127311933
0,0186044572640124
0,0207254343920697
0,0225859186700547
0,0240814134272414
0,0251331725631577
0,0256931464798231
0,0257464396184342
0,0253111857665192
0,0244359652923189
0,0231950865277762
0,0216822149635197
0,0200029460404667
0,0182669723894929
0,0165804921867803
0,0150394451607199
0,0137240549160032
0,0126950128717628
0,011991475109678
0,0116308748079616
0,0116103953646663
0,0119098165115135
0,0124953484903179
0,0133240144715956
0,0143481313177675
0,0155194716379017
0,0167927598978644
0,018128253110674
0,019493271018002
0,0208626594735188
0,0222182819730679
0,0235477273366783
0,0248424882842728
0,0260959008488682
0,0273011365250502
0,0284495094322958
0,0295293043326186
0,0305252553900702
0,031418718978737
0,0321884963339196
0,0328121827444195
0,0332678575131697
0,0335358893066991
0,0336006184818978
0,0334516924633058
0,0330848702979128
0,0325021737150778
0,0317113377383347
0,0307245962063305
0,0295569178366617
0,0282238783086519
0,0267394058804153
0,0251136665320277
0,0233513561245788
0,0214506405621794
0,0194029321979207
0,017193615894844
0,0148037475863362
0,0122126498575323
0,00940123183582792
0,00635577365786624
0,00307184737460573
-0,000441996460678323
-0,00416115899167896
-0,008042900650626
-0,0120255313881047
-0,0160291028872065
-0,0199577113189017
-0,0237033915143419
-0,0271514486401465
-0,0301869424031011
-0,0327019225498065
-0,0346029233776408
-0,0358181679699472
-0,0363039165098165
-0,0360494208236548
-0,0350800194826392
-0,0334580209133064
-0,0312811691330816
-0,0286786579510535
-0,025804842298348
-0,0228309757891956
-0,0199354671724809
-0,0172932812262783
-0,0150651999111708
-0,0133876982207227
-0,0123641708820864
-0,0120581701349627
-0,0124891850395123
-0,013631317640296
-0,0154150032938769
-0,0177316972074272
-0,0204412243691773
-0,0233812837391525
-0,0263784270500171
-0,029259712555168
-0,0318641755389961
-0,034053266413058
-0,0357194843421759
-0,0367925743489904
-0,0372428481343533
-0,0370814180979469
-0,0363573815242416
-0,0351522370053334
-0,0335720371508423
-0,0317379614735501
-0,0297761154186535
-0,0278074150456031
-0,0259383970111183
-0,0242537017206085
-0,0228108217062097
-0,021637501008535
-0,0207319327498413
-0,0200656523219123
-0,0195887848892991
-0,0192370995864631
-0,018940167337056
-0,0186298286169898
-0,0182481598160107
-0,0177541836292766
-0,0171286948209548
-0,016376756112807
-0,0155276428975969
-0,0146322592579004
-0,0137582887562938
-0,0129835592617128
-0,0123882715131975
-0,0120468502065309
-0,012020213698044
-0,0123492202256605
-0,013049938052124
-0,0141112141322698
-0,0154947966118105
-0,0171380209306553
-0,0189588203652594
-0,0208625928048495
-0,0227502681042948
-0,0245267924670935
-0,026109190675096
-0,0274333896849594
-0,0284590871593174
-0,0291721176994466
-0,0295839933674226
-0,0297285537519769
-0,0296559312497768
-0,029424294882814
-0,0290900572879334
-0,0286973938378532
-0,0282680144936763
-0,0277921385276593
-0,0272215475443779
-0,026465438600431
-0,0253895790796044
-0,0238189967921834
-0,0215441454062938
-0,0183301921799407
-0,0139288076172758
-0,00809161872656859
-0,000584338457314963
0,00879948271297296
0,0202261147152412
0,0338116368538117
0,0496149902532836
0,0676345740949149
0,0878085721938724
0,110018886317556
0,134098252962139
0,159839857223261
0,187008554048471
0,215352681671209
0,244615415843668
0,274544670394822
0,304900695341483
0,335460746189354
0,366020478321092
0,396392034405889
0,426399113283661
0,455869607685869
0,48462664883135
0,512479075692462
0,539212438636792
0,564581641706677
0,588306223680537
0,610069082421372
0,629519174917979
0,646278398648986
0,659952505199107
0,6701455438897
0,676477011322397
0,678600619645968
0,67622341501213
0,669123894407749
0,657167792233374
0,640320337215636
0,618654006295492
0,592351107665347
0,561700886141342
0,527091231765808
0,488995455856903
0,447954946820573
0,404558802993899
0,359421738851045
0,313161658575194
0,266378280215571
0,219634076478446
0,173438585585959
0,12823685650551
0,0844024523790089
0,0422350734530143
0,00196250706688276
-0,0362537031097144
-0,0723097274884087
-0,106149086487497
-0,137751548566945
-0,167122358104475
-0,194282737953152
-0,219262408614178
-0,242094604020092
-0,262813768992994
-0,281455824158374
-0,298060608984537
-0,312675888496586
-0,325362154739731
-0,336197383909399
-0,34528092957983
-0,352735838371783
-0,358709055066226
-0,363369220797461
-0,366902036500236
-0,369503437153235
-0,371371073202883
-0,372694798747747
-0,373647001216112
-0,374373660657799
-0,374986992579922
-0,375560409168901
-0,376126340688603
-0,376677209787298
-0,377169569833778
-0,37753113073925
-0,377670129131558
-0,377486279350319
-0,37688238830226
-0,375775645212718
-0,374107613553744
-0,371852055609211
-0,369019900800931
-0,365660910664274
-0,361861874308838
-0,357741463039996
-0,353442155349531
-0,349119888876669
-0,344932283097839
-0,34102638992667
-0,337526960414421
-0,334526163230398
-0,33207556088034
-0,330180955719591
-0,328800478028089
-0,327846024633988
-0,327187892045671
-0,326662205308128
-0,326080542685325
-0,325241012106175
-0,323939957833366
-0,321983468432998
-0,319197916892052
-0,315438881899169
-0,310597962456077
-0,304607189324778
-0,297440938069127
-0,289115441505827
-0,279686167956369
-0,269243462843544
-0,257906936194478
-0,245819113689404
-0,233138855166678
-0,220034987616743
-0,206680509083116
-0,1932476074906
-0,179903617517427
-0,166807922274813
-0,154109706514535
-0,141946393456843
-0,13044255405077
-0,119709067661414
-0,109842335255216
-0,100923395132832
-0,0930168594701867
-0,0861696678811885
-0,0804097317539237
-0,0757446104481906
-0,0721604092098199
-0,069621112753136
-0,0680685646441755
-0,0674232707308321
-0,0675861478847597
-0,0684412628897512
-0,0698595182262029
-0,0717031507551895
-0,0738308253471021
-0,0761030370237952
-0,0783874895686061
-0,0805641008411249
-0,0825292977121638
-0,0841993061001314
-0,0855122108026708
-0,0864286498411759
-0,0869311112158569
-0,087021907316864
-0,0867200045034459
-0,0860569737115809
-0,0850723948338009
-0,0838090873741145
-0,0823085493093778
-0,0806069644979886
-0,0787320884201501
-0,0767012468673278
-0,0745205888293007
-0,0721856309677928
-0,0696830252145583
-0,0669933815921458
-0,0640948931122643
-0,0609674449551804
-0,0575968507937383
-0,0539788476690508
-0,05012249767718
-0,0460526881497227
-0,0418114883652118
-0,0374582048900975
-0,0330680730760294
-0,0287296220898056
-0,0245408480628036
-0,0206044178362209
-0,0170221985151046
-0,013889460903963
-0,0112891346105208
-0,00928649739500112
-0,00792466108543865
-0,00722117238765186
-0,00716598201116552
-0,00772095361419987
-0,00882099010362561
-0,0103767543831233
-0,0122788607187658
-0,0144033175435702
-0,0166179186092366
-0,0187892122123443
-0,0207896322985394
-0,0225043540380963
-0,0238374420657317
-0,0247168926973509
-0,0250982310475417
-0,024966407480566
-0,0243358409326866
-0,023248573585102
-0,0217706251195223
-0,0199867574576103
-0,0179939741271415
-0,0158941740058916
-0,0137864496543271
-0,0117595595423422
-0,00988510687686056
-0,00821192341483149
-0,00676208527120079
-0,00552888275167863
-0,00447693387876762
-0,00354448017107861
-0,00264774396685207
-0,00168707090496219
-0,000554441189401873
0,000858179626302069
0,0026502555515942
0,00490449777114735
0,00767970551033378
0,0110051858303333
0,0148771983664389
0,0192577241677215
0,0240756845242103
0,029230549477314
0,0345980913749546
0,0400378715882782
0,0454019123146924
0,050543912097865
0,0553283215300415
0,0596386087536999
0,0633841121306403
0,0665049945155144
0,0689749701151837
0,0708016576751564
0,0720246068761342
0,0727112315613354
0,0729510473755125
0,0728487382359075
0,0725166547263261
0,0720673713634164
0,0716068971673679
0,0712290487052993
0,0710113653966527
0,0710127861227279
0,0712731298157105
0,0718142478829504
0,0726425601131513
0,0737525632192511
0,0751308242567798
0,0767599470514075
0,0786220304741629
0,0807012193244563
0,0829850729390703
0,0854646302063515
0,0881332161379535
0,0909841966737748
0,094008027489928
0,0971890437693355
0,100502489491213
0,103912280022321
0,107369929717557
0,110814961825307
0,114176961950732
0,117379253890288
0,120343986372573
0,122998241019707
0,125280625023184
0,127147713363093
0,12857966734576
0,129584385477776
0,130199639397851
0,130492805142379
0,130558005435669
0,13051071387876
0,130480115037178
0,130599742265034
0,130997104985562
0,131783149408201
0,133042456443253
0,134825059594653
0,137140662856615
0,139955860993002
0,143194725985001
0,146742844040439
0,150454591763319
0,154163154393957
0,157692539590163
0,160870650390092
0,163542369073725
0,16558158112585
0,166901138916677
0,167459923164367
0,16726639380418
0,166378310662542
0,164898623305007
0,162967850607543
0,160753565676743
0,158437844602194
0,156203706662767
0,154221654096394
0,152637404400247
0,151561798935154
0,151063678347181
0,151166255468536
0,151847213222415
0,153042435685369
0,154652973101819
0,156554573266776
0,15860890546603
0,160675476463309
0,162623200911086
0,164340642960194
0,165744085438156
0,166782793981841
0,167441105931653
0,1677372633942
0,167719200393355
0,167457759588172
0,167038031484105
0,166549660004963
0,166077030618047
0,165690246130565
0,165437703516291
0,165340922606017
0,1653920602051
0,16555429170226
0,165764979693758
0,165941299162924
0,165987773279512
0,165805011311224
0,165298843755106
0,164389026639075
0,163016737520483
0,161150203905175
0,158787978776637
0,155959591165018
0,152723532722616
0,149162773319631
0,145378209640199
0,141480622846145
0,137581840642296
0,133785856494838
0,130180650886329
0,126831388533742
0,123775539030635
0,121020298474733
0,118542491686928
0,116290926001706
0,114190966025379
0,112150920853161
0,11006969518135
0,107845064147986
0,105381894817587
0,102599656603533
0,0994386354340592
0,0958643847734694
0,0918700998062753
0,0874767758047588
0,0827311931884739
0,0777019452128397
0,0724738758748966
0,0671414138539034
0,0618013645659723
0,0565457516500911
0,0514552803062586
0,0465939305104945
0,0420050845095384
0,0377094592029472
0,0337049614025443
0,0299684249585081
0,0264590361477578
0,0231231194474739
0,0198998502635297
0,0167273922293135
0,0135489293194234
0,0103180788925608
0,00700322918159035
0,00359043873697681
8,46582032934335E-05
-0,00349082338727799
-0,00709665623985834
-0,010681234722015
-0,0141857038375612
-0,0175497385756103
-0,0207175990793657
-0,0236439363192074
-0,0262988373392299
-0,0286716552905271
-0,030773263279608
-0,0326364953393544
-0,0343146830443172
-0,0358783510111045
-0,0374102866042362
-0,0389993364098605
-0,0407333933947007
-0,0426921149219021
-0,0449399464760175
-0,0475200157370295
-0,0504494067644993
-0,0537162282448303
-0,0572787599975734
-0,0610668080052259
-0,0649852317994834
-0,0689194419711427
-0,0727425126943521
-0,0763234264580786
-0,0795358756740478
-0,0822669959005901
-0,0844254021011867
-0,0859479431899082
-0,0868046778882955
-0,0870017000826045
-0,0865815949960191
-0,0856214769661603
-0,0842287326772688
-0,0825347572875021
-0,0806871128062868
-0,0788406478177448
-0,0771481872784787
-0,0757514258270679
-0,0747726364998803
-0,0743077411619429
-0,0744211848454599
-0,0751429219476514
-0,0764676683401847
-0,0783564117844932
-0,0807400157215608
-0,0835246101814843
-0,0865983482551881
-0,089839025213176
-0,0931220149528862
-0,0963279769796098
-0,0993498252937275
-0,10209852412762
-0,10450737759094
-0,106534602159148
-0,108164102569371
-0,109404502698476
-0,11028660353298
-0,110859541721644
-0,111185997717844
-0,111336847764304
-0,111385667170883
-0,111403474373585
-0,111454059415936
-0,111590172158846
-0,11185076153582
-0,112259365275205
-0,112823657555069
-0,113536077418955
-0,114375389677004
-0,115308977122192
-0,116295630931281
-0,117288595877166
-0,118238637222254
-0,119096923987769
-0,119817564497558
-0,120359679556357
-0,120688951006248
-0,120778633536879
-0,120610061057472
-0,120172712327774
-0,119463921842147
-0,118488330626183
-0,11725716844474
-0,115787445956304
-0,114101115569796
-0,11222423658703
-0,110186157260038
-0,108018706929908
-0,10575537803931
-0,103430472227093
-0,101078187486817
-0,0987316339521571
-0,0964217826932204
-0,0941763725260345
-0,0920188213130137
-0,0899672074441778
-0,0880334011162351
-0,0862224313247576
-0,0845321714369933
-0,0829534132879215
-0,0814703773531857
-0,0800616762916824
-0,0787017134934078
-0,0773624603496088
-0,0760155193814666
-0,0746343486502554
-0,0731964993205869
-0,0716857054310553
-0,0700936645754041
-0,0684213608913955
-0,0666798070015091
-0,064890117676713
-0,0630828723898252
-0,0612967732708999
-0,059576655429825
-0,0579709543062094
-0,0565287759387255
-0,0552967476496253
-0,0543158462550612
-0,0536184070853543
-0,0532255095088327
-0,0531449138853443
-0,0533696926404033
-0,0538776567796334
-0,0546316316725471
-0,0555805855349264
-0,056661564121586
-0,0578023387168718
-0,0589246343261507
-0,0599477731117942
-0,0607925459931255
-0,0613851137425385
-0,0616607378409665
-0,061567150366703
-0,0610673902552341
-0,0601419590663879
-0,0587901814410875
-0,0570306920796383
-0,0549010108034283
-0,0524562084951534
-0,0497667080625861
-0,046915304693557
-0,0439935271964223
-0,0410974959550631
-0,0383234615540321
-0,0357632301342712
-0,0334996956322651
-0,0316027039342402
-0,0301254684263072
-0,0291017396361737
-0,0285439031484155
-0,0284421399727177
-0,0287647329935818
-0,0294595437787152
-0,0304566185969001
-0,0316718144233538
-0,033011269198729
-0,0343764801835135
-0,0356697047011909
-0,0367993632494542
-0,0376851097066057
-0,0382622398710136
-0,0384851391065005
-0,0383295220950129
-0,0377932903814928
-0,0368959226025411
-0,0356764123579158
-0,0341898727603806
-0,0325030270434091
-0,0306888932704773
-0,0288210406837063
-0,026967839043822
-0,0251871357558123
-0,0235217760455697
-0,0219963289305455
-0,0206152989169599
-0,0193629954941434
-0,0182051072087302
-0,0170918937145141
-0,0159627781858799
-0,0147520045521842
-0,0133949291272018
-0,0118344530548617
-0,0100270766233489
-0,00794807238526952
-0,00559533104271647
-0,00299152885635982
-0,000184391212068184
0,00275502561974252
0,00573595505586731
0,0086532090208272
0,0113937619128518
0,013844145179187
0,0158980939384425
0,0174638574241419
0,0184706031257424
0,0188734097312767
0,0186564517441893
0,017834120583873
0,016449991726402
0,0145737214262421
0,0122961251610859
0,00972283884493752
0,00696708008710129
0,00414210010870674
0,00135394056248497
-0,00130491903392885
-0,0037605163262242
-0,00596057933769837
-0,00787568984130917
-0,00949838542138175
-0,010840330303187
-0,0119278557698016
-0,0127963157507933
-0,0134838090661952
-0,0140248770444474
-0,014444788434501
-0,0147549718136256
-0,0149500532157298
-0,0150068119961132
-0,0148851935207365
-0,0145313282580052
-0,013882319916282
-0,012872397037687
-0,011439888059097
-0,00953439159530184
-0,00712347993192893
-0,00419829810077281
-0,00077750202460069
0,00309088933544345
0,00732998194604554
0,0118368928346645
0,0164878878944065
0,0211454293437139
0,0256666212179331
0,0299124122375666
0,0337568383531566
0,0370955690834732
0,0398530645564949
0,0419877506718501
0,0434947701004738
0,0444060547310516
0,0447876753244542
0,0447346394183413
0,0443635113768827
0,0438034024259476
0,043186009532969
0,0426354595493741
0,0422587331293336
0,042137400256686
0,0423212994926888
0,0428246444508954
0,0436248555174707
0,0446642073005676
0,0458541690093495
0,0470821125537552
0,048219887036781
0,0491336217435192
0,0496940325364662
0,0497864746707753
0,0493200099806533
0,0482348353058516
0,0465075450272684
0,044153863340019
0,0412286685642928
0,0378233280502659
0,0340605533542564
0,0300871574735425
0,0260652368469045
0,0221624011395178
0,0185417272872738
0,0153521183161862
0,0127197032192311
0,0107408262477839
0,00947705004047765
0,00895244700954076
0,00915328896377623
0,0100300781775578
0,0115017060053324
0,0134613884454937
0,015783920777607
0,0183337219840046
0,0209731078494097
0,0235702401460238
0,0260062459394426
0,028181081021995
0,0300178177654623
0,0314651616897083
0,032498133255049
0,0331169820551629
0,0333445205235572
0,0332221653355947
0,0328050505042771
0,0321566223919742
0,0313431413585748
0,0304284979469132
0,0294697057811816
0,0285133633341393
0,0275932884134906
0,0267294298420877
0,0259280580716257
0,0251831380008514
0,0244787002237646
0,0237919572740759
0,0230968637801438
0,0223677965666495
0,0215830336102646
0,0207277383956087
0,0197962058378997
0,0187931933251917
0,0177342399631514
0,0166449626461864
0,0155594023799934
0,014517571985184
0,0135624210343287
0,0127364807500957
0,0120784772610969
0,0116202040150623
0,0113839233565165
0,0113805246662142
0,0116086054291984
0,0120545666674116
0,012693731093951
0,0134924075505777
0,0144107453015848
0,0154061530595905
0,0164370056589992
0,0174663306540699
0,0184651605702778
0,0194152552376122
0,0203109417234308
0,0211598840761267
0,0219826769473111
0,0228112500774079
0,0236861677051814
0,0246530005143865
0,0257580303540154
0,0270436127047682
