-0,000601352580747672
0,00131001486552686
0,00272967226468999
0,00362282496938973
0,00398263204881367
0,00383075153517743
0,0032158491493419
0,00221017957872401
0,000904516878569027
-0,000598147328310236
-0,00218961586421747
-0,00376363138821129
-0,00522257692834002
-0,00648320506432664
-0,00748096883237757
-0,00817266473327709
-0,0085372597077963
-0,00857494369108181
-0,00830461084628648
-0,00776011020450249
-0,00698570711345909
-0,00603125129195934
-0,00494755077750619
-0,0037824041065242
-0,00257765115835055
-0,0013674762476493
-0,000178048610166955
0,00097156902673534
0,00206745758746647
0,00309815780790146
0,0040516808063931
0,00491266458272614
0,00566011406771922
0,00626609965232785
0,00669568363985689
0,00690820631679422
0,00685990718592029
0,00650769821604595
0,00581376115510587
0,00475052524180774
0,00330550768150349
0,00148547575853482
-0,000680579624105987
-0,0031400851617687
-0,00581743663416042
-0,00861659006447833
-0,0114256351548335
-0,0141231033496281
-0,0165855870478597
-0,0186961020942648
-0,0203525273013164
-0,0214754129128438
-0,0220144704147416
-0,0219531389209561
-0,0213107630337158
-0,0201421027243548
-0,0185341121511426
-0,0166001531287385
-0,0144720302855987
-0,0122904292311685
-0,0101944886395344
-0,00831132804944548
-0,00674637621373775
-0,0055752966891868
-0,00483819080530564
-0,00453658205829054
-0,00463346442919384
-0,00505644842561292
-0,00570378367837988
-0,0064527973228313
-0,0071700838160411
-0,00772263188998866
-0,00798899134795829
-0,00786957384847462
-0,00729524898168334
-0,00623353445900791
-0,00469187576650261
-0,00271774963910427
-0,000395586973505193
0,00215922783767873
0,00480878495554366
0,00740281150199548
0,00978973753938446
0,0118277675551953
0,0133950680183173
0,0143982648201135
0,014778594662701
0,0145152582228974
0,0136257622503242
0,0121632917208275
0,0102113997275342
0,00787652084211879
0,00527898472511232
0,00254331676159751
-0,000211347214130304
-0,00287993675740803
-0,0053785176319414
-0,00764921983675476
-0,00966268604842696
-0,0114179292676561
-0,012939718271685
-0,0142738230692234
-0,0154806312825084
-0,0166277750714305
-0,0177824763897161
-0,0190043212702265
-0,0203391125712868
-0,0218143321652887
-0,0234365798677201
-0,0251911633530754
-0,0270438091011249
-0,0289442679824389
-0,030831418221586
-0,0326393383306708
-0,0343037443076781
-0,0357681650782781
-0,0369892685348791
-0,0379408428326247
-0,0386160742485713
-0,0390279303200242
-0,0392076390047778
-0,0392014340708886
-0,0390658971402002
-0,0388623532324707
-0,0386508581481813
-0,0384843458093713
-0,0384034799557837
-0,0384326805668546
-0,0385776789368941
-0,0388248081316667
-0,0391420719744623
-0,039481871361178
-0,0397851170131311
-0,0399863364357883
-0,0400193007208391
-0,0398226607569955
-0,0393450948004965
-0,0385495279854969
-0,0374160825788187
-0,0359435454023244
-0,0341492829291272
-0,0320676809924276
-0,0297473206002879
-0,0272472113517124
-0,0246324792448216
-0,0219699397556721
-0,0193239774823315
-0,0167531023919914
-0,0143074657418668
-0,0120275055493554
-0,00994376399311883
-0,00807779056699201
-0,00644392834833711
-0,00505168822999215
-0,00390835674231349
-0,00302146305209029
-0,00240075181073442
-0,0020593684298374
-0,0020140559481305
-0,0022842782643829
-0,00289031133186384
-0,00385046869981696
-0,00517773757456772
-0,00687618465172946
-0,00893753830457831
-0,0113383596741174
-0,0140381782675029
-0,016978890610371
-0,0200856100359397
-0,0232690221227292
-0,0264291561895622
-0,0294603426607642
-0,0322570027477794
-0,0347198232871526
-0,0367618153811979
-0,0383137468887746
-0,0393284775995319
-0,039783809472409
-0,0396835855823697
-0,0390569197672557
-0,0379556009335323
-0,0364498767058011
-0,0346229655681044
-0,0325647612165338
-0,0303652665168149
-0,0281083198875021
-0,0258661513150561
-0,023695230320959
-0,0216337506229779
-0,0197009463607689
-0,0178982663115907
-0,0162122607965727
-0,014618876930319
-0,0130887261710594
-0,0115927961788764
-0,0101080354623235
-0,00862224853331545
-0,007137800749716
-0,00567374037027979
-0,00426609093350038
-0,00296623677785311
-0,0018375030090038
-0,000950202241793308
-0,000375568451065266
-0,000179109650859924
-0,000413975663141192
-0,00111494877404644
-0,00229362232439001
-0,00393523868176606
-0,00599752168876861
-0,00841167134274302
-0,0110855048003313
-0,0139085437395242
-0,0167586797871728
-0,0195099116993909
-0,0220405523177527
-0,0242412582645621
-0,0260222447899081
-0,0273191113369882
-0,0280968148045569
-0,0283514776739831
-0,0281098943092335
-0,0274267859493395
-0,0263800374014795
-0,0250643109600458
-0,023583562113688
-0,0220430666015316
-0,0205416025080313
-0,0191644118606894
-0,0179774955473235
-0,0170236795829055
-0,0163207396896901
-0,0158616976629273
-0,01561722155078
-0,0155398873873949
-0,0155699074219723
-0,0156418109804981
-0,0156914888353757
-0,0156629861682087
-0,0155144547177258
-0,015222749065901
-0,0147862688234826
-0,0142257978780128
-0,013583261389183
-0,0129184967835108
-0,0123043021830412
-0,0118201707431354
-0,0115452304542797
-0,0115509770849731
-0,0118944076422317
-0,0126121315194166
-0,0137159590377363
-0,0151903488038177
-0,0169919459965494
-0,0190512756351526
-0,0212764818469959
-0,0235588402312507
-0,0257796289282184
-0,02781783637125
-0,0295581184535522
-0,0308984000878829
-0,0317565469717274
-0,0320756099534247
-0,0318272600828946
-0,0310131775146497
-0,0296643197398693
-0,0278381607602987
-0,0256141491896814
-0,0230877671924781
-0,0203636730043218
-0,0175484697801149
-0,0147436583916894
-0,0120393011322103
-0,00950885048693133
-0,00720548908532835
-0,00516019338969329
-0,00338158641622756
-0,00185749649125295
-0,000558002326514583
0,000560369076519071
0,00154970685214868
0,00246550152711678
0,00336161183227616
0,00428583576325518
0,00527643470941111
0,00635985714393135
0,00754978746349432
0,00884751734398287
0,0102435131852579
0,0117199449770364
0,0132538587817588
0,0148206241050583
0,016397272799398
0,0179653685532538
0,019513102777383
0,0210363980426575
0,022538905793876
0,0240309007563625
0,0255271892586908
0,0270442518013671
0,0285969219194989
0,0301949559939663
0,0318398671914993
0,0335223792971632
0,0352208042956588
0,0369005657695523
0,0385149859296758
0,0400073367767606
0,0413140362682924
0,0423687593933011
0,043107141985951
0,0434716906000779
0,0434164810511506
0,0429112344864872
0,041944403102316
0,0405249744758284
0,0386828075379401
0,0364674356489734
0,0339454024348401
0,0311963226032979
0,028307971726255
0,0253707959139851
0,0224722864571074
0,0196916807479583
0,0170954271641711
0,0147337896496228
0,0126388723738151
0,0108242239238046
0,0092860441412645
0,00800587661693776
0,0069545380748331
0,00609692395267349
0,00539724744103838
0,00482422460298254
0,00435571543406999
0,00398237080109737
0,00370991538898269
0,00355981093915661
0,00356818304930225
0,00378304718793899
0,00426002265791846
0,00505686400497648
0,00622725559112324
0,00781439639770525
0,00984494093555882
0,0123238541713785
0,0152306832142695
0,0185176495922055
0,0221098304163374
0,0259075348685402
0,0297908068740794
0,033625809515453
0,0372726859129111
0,0405943582653727
0,0434656327590611
0,0457819314945062
0,0474669781077892
0,0484788219784486
0,0488136932258303
0,0485073295888425
0,047633595811704
0,0463004129098424
0,044643213651836
0,0428163265430113
0,0409828491041109
0,0393036899749343
0,0379265289797889
0,0369754592196726
0,0365420340877514
0,0366783478393578
0,0373926379457436
0,0386477214964094
0,0403623795548993
0,0424155974933505
0,0446533711730143
0,0468976130251852
0,048956551292071
0,0506359198678905
0,0517501917018148
0,0521331180802266
0,0516468976326197
0,0501894072009509
0,0476990729362283
0,0441571327515922
0,0395872275026099
0,0340524442872402
0,0276501077172141
0,0205047620311873
0,0127598987109132
0,00456905396139863
-0,00391307566238976
-0,0125388733559663
-0,0211748370873487
-0,0297069513309991
-0,0380440690339143
-0,0461191282163521
-0,0538881868524556
-0,0613274162054919
-0,0684283361811689
-0,0751916972314096
-0,0816205044675037
-0,0877127355405958
-0,0934543216709469
-0,0988129404622839
-0,103733111860024
-0,108132998964148
-0,111903199563157
-0,11490767979077
-0,116986856960824
-0,117962693586058
-0,117645528113622
-0,115842248711313
-0,112365322289937
-0,10704212806266
-0,0997240178026199
-0,0902945357715059
-0,0786762800191284
-0,0648359708325504
-0,0487874067089762
-0,0305921262495573
-0,0103577470457019
0,0117658902419142
0,0355924935833783
0,0609065943610671
0,0874718059866388
0,115039476232744
0,143357114192919
0,17217598927313
0,201257361824802
0,230376909934343
0,259327058042777
0,287917081122246
0,315971041200862
0,343323797620702
0,369815504307985
0,395285152712732
0,419563825536396
0,442468384034172
0,463796314032595
0,483322400344772
0,500797787903122
0,515951826975405
0,528496899699735
0,538136199705439
0,544574202116823
0,547529335323863
0,546748166108282
0,542020252099409
0,533192713458176
0,520183538613211
0,502992671588469
0,481710030497619
0,456519772458683
0,427700338807341
0,395620071217114
0,360728466164093
0,323543412402832
0,28463501373476
0,244606818741855
0,204075444418219
0,163649679951272
0,12391018337072
0,0853908360488567
0,048562702247638
0,013821362507579
-0,0185218355357126
-0,0482443202129854
-0,0752126096690896
-0,0993786303442211
-0,120772504101113
-0,139492455833378
-0,155692627104615
-0,16956965382276
-0,181348874995865
-0,19127098812
-0,199579862185362
-0,206512072893948
-0,212288550376124
-0,217108542839891
-0,221145915555385
-0,224547637553353
-0,227434170194635
-0,229901370951137
-0,232023467132347
-0,233856638812195
-0,235442774976115
-0,236813025836113
-0,237990858743944
-0,2389944250977
-0,239838150439701
-0,240533559490692
-0,241089433425404
-0,241511461634239
-0,241801590407234
-0,24195728507114
-0,241970911291175
-0,241829409054426
-0,241514384537021
-0,24100268695894
-0,240267476375662
-0,239279730561241
-0,238010090181094
-0,236430905457791
-0,234518326979884
-0,232254278903615
-0,229628163663234
-0,22663817113081
-0,223292098671404
-0,219607627828603
-0,215612044479635
-0,211341428504637
-0,206839373249864
-0,202155322097598
-0,197342628032681
-0,192456451851193
-0,187551616103791
-0,182680526105136
-0,177891257851258
-0,173225897141078
-0,168719196148448
-0,16439759448694
-0,160278632481391
-0,156370765590035
-0,152673571086908
-0,149178321456338
-0,145868883563727
-0,142722888783107
-0,139713107212359
-0,136808949452792
-0,133978012916278
-0,131187587123094
-0,128406034794291
-0,12560397341519
-0,122755195634714
-0,119837286159294
-0,116831916857628
-0,113724829069454
-0,110505540492966
-0,107166840871386
-0,103704163180861
-0,100114932337657
-0,0963979992348888
-0,0925532625181014
-0,0885815633387817
-0,084484909953182
-0,0802670513980449
-0,0759343756934603
-0,0714970622387042
-0,066970375084008
-0,0623759485445713
-0,0577428938180064
-0,05310854858983
-0,0485187034490114
-0,0440271698598077
-0,0396946031059822
-0,0355865566428806
-0,0317708165522059
-0,0283141397142471
-0,0252785895990404
-0,0227177217888965
-0,0206729107518797
-0,0191701246629168
-0,0182174429739089
-0,0178035712312014
-0,017897541326112
-0,0184496976814279
-0,0193939678425499
-0,0206513084342949
-0,0221341142102144
-0,0237512888308965
-0,0254136098766194
-0,0270389844761501
-0,0285571901492158
-0,0299137292589165
-0,0310724926733579
-0,0320170234680252
-0,0327502865416518
-0,0332929746088109
-0,0336805038529442
-0,0339589622038557
-0,0341803595748522
-0,0343975843690506
-0,0346594890885453
-0,0350065083091511
-0,0354671567449362
-0,036055669120341
-0,036770935617836
-0,0375967673045063
-0,0385034067708909
-0,0394500916530662
-0,0403883928829794
-0,0412659932512841
-0,0420305498556553
-0,0426332974455246
-0,043032096078791
-0,0431937001333667
-0,0430951180560869
-0,042724033119753
-0,0420783539536031
-0,0411650493729471
-0,0399984862423987
-0,0385985254917155
-0,0369886368322224
-0,03519426750206
-0,0332416482014262
-0,0311571468559278
-0,0289671967903229
-0,0266987402583995
-0,0243800511901732
-0,022041741484168
-0,019717720321338
-0,0174458700176008
-0,0152682259483479
-0,0132304997246235
-0,0113808586579699
-0,00976796266423658
-0,00843835250145717
-0,00743337037018219
-0,00678586559553441
-0,00651698610806069
-0,00663337481331011
-0,00712507587516938
-0,00796440987037758
-0,00910600258717668
-0,0104880566208606
-0,0120348469399852
-0,0136603115980119
-0,0152725074411664
-0,0167786179366185
-0,0180901442660242
-0,0191278872280363
-0,019826338747571
-0,020137147078765
-0,020031395014962
-0,0195005287074098
-0,0185558869696965
-0,0172268969583047
-0,0155581113113913
-0,0136053544084572
-0,0114313132736807
-0,00910094603623015
-0,00667708498803038
-0,00421658236016414
-0,00176728831289566
0,00063393183478064
0,00296203244465814
0,00520347081869921
0,00735483739438444
0,00942062168442673
0,0114103734470479
0,0133355639240244
0,0152064687217396
0,0170293813861151
0,0188044269472275
0,0205241819704967
0,022173228216845
0,0237286783125129
0,025161621911839
0,0264393575554359
0,027528205812201
0,0283966489315387
0,0290185149056226
0,0293759212312219
0,0294617153057441
0,0292811918581144
0,0288529288794992
0,0282086567518639
0,0273921543214913
0,0264572440198367
0,0254650294837891
0,024480577943106
0,0235692915366759
0,0227932337678925
0,0222076782049936
0,0218581266242978
0,0217780050424527
0,0219871918140846
0,0224914666697928
0,023282898408261
0,0243411175761837
0,0256353543489369
0,0271270660712984
0,0287729377754993
0,0305280155614062
0,0323487287606047
0,0341955725021205
0,0360352563654193
0,0378421744043321
0,0395991129012212
0,0412971796664275
0,0429350068582162
0,0445173423035788
0,0460531966025889
0,0475537501648623
0,0490302422212541
0,0504920608602845
0,0519452291386261
0,0533914391507501
0,0548277272482207
0,0562468146677194
0,0576380651010278
0,0589889413033525
0,0602867838209672
0,0615206926786328
0,0626832725339678
0,0637720064521271
0,0647900539331428
0,0657463233506006
0,0666547432275188
0,067532744245162
0,0683990562107731
0,069271012111861
0,0701616253713982
0,0710767578535855
0,0720127181169703
0,0729546175105899
0,0738757646757824
0,074738299107121
0,0754951572594632
0,076093339038213
0,0764783095258844
0,0765992430473873
0,0764147070559332
0,0758983036523071
0,0750437465440351
0,0738688572765101
0,072418018944469
0,0707627261786234
0,069000010268261
0,067248687136731
0,0656435594938875
0,0643278868962794
0,0634446020496054
0,0631268828710888
0,0634887744781238
0,0646165840262079
0,0665617396706952
0,069335713678134
0,0729074651152326
0,0772036708370304
0,0821117999149068
0,087485864188105
0,0931544653473769
0,0989305752628755
0,10462234723955
0,110044173716389
0,11502718785853
0,119428454075724
0,12313820144769
0,126084614697161
0,128235895484864
0,129599525044214
0,130218878579869
0,130167543661729
0,129541862224484
0,128452335284548
0,127014592290148
0,125340629588998
0,123530966761732
0,121668262666766
0,119812786411774
0,117999966717122
0,116240062509205
0,114519824406156
0,112805865900616
0,111049346518107
0,109191495245102
0,107169474820607
0,104922105222442
0,102395022750314
0,0995449408585429
0,0963427891996801
0,0927756258623444
0,0888473322660791
0,0845781997596735
0,0800035931399113
0,0751719237711213
0,0701421819065322
0,0649812658967049
0,0597613100045193
0,0545571596575823
0,0494440817814318
0,0444957372481529
0,0397823906767382
0,0353692963855651
0,0313151823879034
0,0276707583518459
0,0244771969081936
0,0217645765093514
0,0195503220711608
0,0178377294398022
0,016614703594381
0,0158528712614922
0,0155072406779017
0,0155165711200103
0,0158045817240274
0,0162820750239501
0,0168499800685936
0,0174032396496408
0,0178353841388406
0,0180435593370403
0,0179337157739639
0,0174256289656105
0,0164574090955535
0,0149891766337651
0,0130056269239301
0,0105172782627251
0,00756028850217504
0,004194826863965
0,000502091493562255
-0,00341983985041326
-0,00746105714355513
-0,0115054355424218
-0,0154364629181292
-0,0191429145082072
-0,0225240371703469
-0,0254939562909037
-0,0279850885335801
-0,0299504261981155
-0,0313646460422684
-0,0322240790618275
-0,0325456508127624
-0,0323649587416423
-0,0317336900495113
-0,0307165994598366
-0,0293882617994702
-0,027829792450364
-0,0261256940113722
-0,0243609453954428
-0,0226184058497388
-0,0209765663808869
-0,0195076491154184
-0,0182760340738975
-0,0173369837573734
-0,01673563810941
-0,0165062634783575
-0,0166717555664632
-0,017243413717381
-0,018221017865921
-0,0195932461847825
-0,0213384681472925
-0,0234259330963582
-0,0258173489460421
-0,028468811545883
-0,0313330062492987
-0,0343615642088005
-0,0375074222542702
-0,0407270121730616
-0,0439820972732138
-0,0472410842991053
-0,0504796682644413
-0,0536807155300078
-0,0568333532974282
-0,0599313064067507
-0,0629705981840275
-0,0659468035115435
-0,0688521015374497
-0,0716724155607734
-0,0743849431081723
-0,0769563667791265
-0,0793419953828954
-0,0814860173623305
-0,0833229594039627
-0,0847803397053935
-0,0857823966305764
-0,0862546693339243
-0,0861291172668117
-0,085349399193896
-0,0838758964229432
-0,0816900637798855
-0,0787977266920451
-0,0752310115438251
-0,0710486940216038
-0,0663348685149057
-0,0611959708126837
-0,0557563152304686
-0,0501524247541493
-0,0445265285518738
-0,0390196669991229
-0,0337648745293299
-0,0288809027554529
-0,0244669013605227
-0,0205983964931639
-0,0173248029497471
-0,014668586518074
-0,0126260670665039
-0,0111697320482491
-0,0102518241357258
-0,00980888409297072
-0,00976687676218985
-0,0100465073583702
-0,0105683472239092
-0,0112574299852838
-0,0120470452864176
-0,0128815406560956
-0,01371803418436
-0,0145270328310645
-0,0152920352942016
-0,0160082676658895
-0,016680749778465
-0,017321917655766
-0,0179490326381975
-0,0185815926169204
-0,019238929245834
-0,0199381321665983
-0,020692392964871
-0,0215098134637024
-0,0223926800831761
-0,0233371721061193
-0,0243334490339213
-0,0253660513088495
-0,0264145484236875
-0,0274543764205302
-0,0284578196295898
-0,0293951055225732
-0,0302355931736002
-0,0309490421997929
-0,031506948433296
-0,0318839245571907
-0,0320590895725506
-0,0320174125454384
-0,0317509369545066
-0,0312597959349767
-0,0305529196239942
-0,029648336905675
-0,0285729872694335
-0,0273619849393974
-0,0260573158352652
-0,0247059955472411
-0,0233577690586899
-0,0220624849995919
-0,0208673227914034
-0,0198140842459174
-0,0189367769550743
-0,018259711514012
-0,0177963066324278
-0,0175487462096557
-0,017508563598736
-0,0176581459649305
-0,017973063103336
-0,0184250387892878
-0,0189853075621792
-0,019628044178894
-0,0203335238091438
-0,0210906732151819
-0,0218987086574606
-0,0227676239678579
-0,0237173877288495
-0,0247758244288194
-0,0259752810527119
-0,0273483064098377
-0,0289226836587287
-0,0307162454998323
-0,0327319566152977
-0,0349537619845818
-0,0373436689934771
-0,039840456017568
-0,0423602846918214
-0,0447993455650556
-0,0470384986863958
-0,0489496957060947
-0,050403803297968
-0,0512793040631972
-0,0514712440918038
-0,0508997368958268
-0,0495173287030287
-0,0473145828264767
-0,0443233489507415
-0,040617339838639
-0,0363098319625314
-0,0315485232199149
-0,0265078031383426
-0,0213789008136936
-0,0163585557472342
-0,0116369912709695
-0,00738604723581681
-0,00374834035018889
-0,000828264458553445
0,00131447794661134
0,00266829930764215
0,0032698132470303
0,00320053909668019
0,00258043596079765
0,0015587206014355
0,000302634436614737
-0,00101501322706191
-0,00222859935719435
-0,00319178422722043
-0,00378804266230963
-0,0039388377397708
-0,00360882439548539
-0,00280769815342928
-0,0015885627646424
-4,29596127657887E-05
0,00170703993534164
0,00351905094432733
0,00524209392275994
0,00672889575543676
0,00784780980271376
0,00849342605247813
0,00859504881209962
0,00812239036143343
0,00708805056703851
0,00554660691254745
0,0035904064512746
0,00134240962263001
-0,00105333477330838
-0,00344282182765801
-0,00567394728505449
-0,0076081553514416
-0,00913096720322482
-0,0101605744438343
-0,0106538397255442
-0,0106092551214828
-0,0100666506665113
-0,00910370141843688
-0,00782953113879954
-0,00637593465372753
-0,00488692181531393
-0,00350741001326147
-0,00237195029080022
-0,00159436052321454
-0,00125905952972748
-0,00141475547222951
-0,00207095216160177
-0,00319751335261625
-0,0047272856296425
-0,00656154390101463
-0,00857780821039948
-0,0106394029859806
-0,0126060032774609
-0,0143443461145791
-0,0157382831898582
-0,0166974128838151
-0,0171636495425821
-0,0171152557519922
-0,0165680654440958
-0,0155738458449831
-0,0142159671494712
-0,0126027532356225
-0,0108590590122934
-0,00911674721288153
-0,00750481033161673
-0,00613989708428133
-0,00511795710766937
-0,00450761708589829
-0,00434575489007848
-0,00463555794666087
-0,00534715271268297
-0,00642068996537327
-0,00777158174931028
-0,00929742509880876
-0,0108860274676187
-0,0124238780585807
-0,0138043927782673
-0,0149352986219027
-0,0157446117731651
-0,01618479432806
-0,0162348357064705
-0,015900182533388
-0,0152106199112819
-0,0142163725433155
-0,0129828324562598
-0,0115844200075243
-0,0100981387533677
-0,00859738903185026
-0,00714656046163486
-0,00579683496668209
-0,00458350806288746
-0,00352498863656667
-0,00262347982057987
-0,00186719002814478
-0,0012337873477602
-0,000694704164515419
-0,000219831061650793
0,000217884813153205
0,000638400254910093
0,00105149465182062
0,00145494588309965
0,00183413608971661
0,00216311909401371
0,00240703922445001
0,00252566118019768
0,00247766423629831
0,0022252810842496
0,00173882834154876
0,00100068494696584
8,32507863633062E-06
-0,00122390105430201
-0,00266443044127276
-0,00426565427273098
-0,00596651116865768
-0,00769629910477734
-0,00937938762932118
-0,0109404300395814
-0,012309629432658
-0,0134276067703933
-0,0142494535427598
-0,0147476228691505
-0,0149134143176908
-0,0147569301115387
-0,0143055127543326
-0,0136008047532085
-0,0126946886531319
-0,0116444599854895
-0,0105076490696208
-0,00933693487603844
-0,00817558347326974
-0,00705379643978292
-0,00598627549954632
-0,00497120576295965
-0,00399074035435928
-0,00301294413322076
-0,00199503405937065
-0,000887648280836666
0,000360206478272527
0,00179593299750025
0,00345827137946896
0,00537278766397482
0,00754828909259071
0,0099744589971441
0,0126209099447537
0,0154377457305621
0,0183576095256248
0,0212990855859582
0,0241712234194712
0,0268788731094394
0,0293284638912408
0,0314338285286819
0,0331216748575513
0,0343363324385015
0,035043454002265
0,0352324241047489
0,0349173157124464
0,0341363330037724
0,0329497788478646
0,0314366815318561
0,029690301200235
0,0278128067356917
0,0259094642112401
0,0240827056137115
0,0224264498590719
0,0210210271954163
0,0199290145523246
0,0191922261795919
0,0188300252535879
0,018839033192482
0,0191942201069663
0,0198512683150626
0,0207500173528607
0,0218187291515602
0,0229788609115394
0,0241500044433706
0,0252546465756273
0,0262224262244545
0,0269936086143885
0,0275215628748672
0,0277741111337134
0,0277337092105073
0,0273965140413991
0,0267704835920894
0,0258727338026404
0,0247264374453658
0,0233575862350799
0,0217919465324656
0,0200525190629712
0,0181577651899184
0,0161207897424622
0,0139495787998888
0,0116482875510294
0,00921946708597005
0,00666701902315054
0,00399958230439551
0,00123399542602723
-0,00160155380667997
-0,00446507620195758
-0,00729937410796599
-0,0100319554213122
-0,012576444858694
-0,0148355474716392
-0,016705486400635
-0,0180817029112148
-0,0188654831579678
-0,0189710737048589
-0,0183327760256454
-0,0169114761399376
-0,0147000735046924
-0,0117273241281526
-0,00805970405143479
-0,0038010249125534
0,000910315600875203
0,00590640005795382
0,0109969584577594
0,0159782636895027
0,0206432489884649
0,0247922409266981
0,0282436428591553
0,0308438915643347
0,0324760454678303
0,0330664440230151
0,0325889988348665
0,0310668292681603
0,0285711275655385
0,0252173184975879
0,0211587534155015
0,016578335884808
0,0116786049754423
0,00667089408814537
0,00176423212459673
-0,0028453427367157
-0,00698442762801222
-0,0105103109015841
-0,0133170082557329
-0,0153389888934103
-0,0165524569071999
-0,0169742117690377
-0,0166582627957123
-0,0156905057512973
-0,0141818769636616
-0,0122604753760696
-0,0100631822073972
-0,00772731052945728
-0,00538278483982739
-0,00314528776534822
-0,00111072346905548
0,000648757366786506
0,00208703973791485
0,00318461666491844
0,00394754167634739
0,00440494452235492
0,00460536718733343
0,00461222868283956
0,00449875443681705
0,00434270967446383
0,00422125802161908
0,00420623005497655
0,00436003599870208
0,00473239714807575
0,00535800685720749
0,00625516875117836
0,00742540124443381
0,00885394661431984
0,0105110819240795
0,0123540990951999
0,0143298024931659
0,0163773638350887
0,0184313747118556
0,0204249448888729
0,0222927079880405
0,0239736134220345
0,0254134030318366
0,026566691593228
0,0273985913298685
0,02788584129503
0,0280174226510347
0,0277946603308465
0,0272308301684666
0,0263503081408321
0,0251873145106708
0,0237843199035962
0,0221901920673755
0,0204581705231497
0,0186437608821149
0,0168026407535745
0,0149886646483258
0,0132520462142379
0,0116377830332821
0,0101843729570996
0,00892285283587291
0,00787617194373284
0,00705889497310596
0,00647721457529645
0,00612924219987746
0,00600553910012156
0,0060898469984417
0,00635997956900791
0,00678884064253834
0,00734554145013335
0,00799659566012309
0,00870717575701837
0,00944241606360189
0,010168745422791
0,0108552259684993
0,0114748639663338
0,0120058456387115
0,0124326371435424
0,0127468758861191
0,012947972729122
0,013043343972622
0,0130482002201505
0,0129848376237009
0,0128814056396023
0,0127701631540107
0,012685279197985
0,0126602818535616
0,0127253048162109
0,0129043203950113
0,0132125755005222
0,0136544589085942
0,0142220204545063
0,0148943340421639
0,0156378465953912
0,016407786621325
0,0171506232814891
0,0178074759607811
0,0183182829162621
0,0186264540457319
0,0186836655039218
0,0184544104108514
0,0179199062283563
0,0170809792371029
0,0159596008507259
0,0145988371141176
0,0130610864006157
0,011424613030575
0,00977852602582496
0,0082164907760512
0,00682958489461332
0,00569880643299185
0,00488780304376782
0,00443640742266591
0,0043555336221357
0,00462391072360199
0,00518700909783825
0,00595835818383657
0,00682327484146859
0,00764483188192364
0,00827171273768826
0,00854743590562301
0,00832030612147387
0,00745337003876781
0,00583363076139864
0,003379811817991
4,80560599715298E-05
-0,00416490743042422
-0,00922140553402317
-0,0150453319217309
-0,0215273578013649
-0,0285324534938741
-0,0359091376332583
-0,0434997196538933
-0,0511507066614961
-0,0587225170659565
-0,066097684497513
-0,0731868448903063
-0,0799319698670711
-0,086306528130437
-0,0923125066284291
-0,0979744849891322
-0,103331208868625
-0,108425329509344
-0,113292149114549
-0,11794831939226
-0,122381473610626
-0,126541726450512
-0,130335852955944
-0,133624766415423
-0,136224669283851
-0,13791197015089
-0,138431765403611
-0,137509400159161
-0,134864372341221
-0,130225647142979
-0,123347323164432
-0,114023547276185
-0,102101617307391
-0,0874923375455739
-0,0701768924918566
-0,0502097638675898
-0,0277175141017715
-0,0028935726505936
0,0240105356859634
0,0526968133420679
0,082834345192367
0,114073731177254
0,14606128986105
0,178451965373848
0,210919996483012
0,243166610157338
0,27492426648235
0,305957285602659
0,336059005554317
0,365045926153831
0,392749563021383
0,419006944752339
0,443650817372115
0,4665006619401
0,487355579121372
0,505989952040562
0,522152576421781
0,535569662205964
0,54595178601736
0,55300453497987
0,556442256738859
0,556004044613128
0,551470864049706
0,542682585600443
0,529553642695198
0,512086084375347
0,490378940862124
0,464633052796148
0,435150815821917
0,402330638152835
0,366656273488234
0,32868154732418
0,289011314182712
0,248279742339588
0,207127201815043
0,166177117601026
0,126014137547756
0,0871648550349228
0,0500821300295034
0,0151337846506594
-0,0174038674715688
-0,0473475397610288
-0,0746037594438501
-0,0991614528331813
-0,121081117989627
-0,140481561946654
-0,157525285438315
-0,172403615776693
-0,185322620073716
-0,196490685284536
-0,206108443617283
-0,214361471519525
-0,221415920461422
-0,227416971857108
-0,232489769332689
-0,236742288807689
-0,24026947546313
-0,243157915761125
-0,245490324801925
-0,247349210435576
-0,248819215493581
-0,249987823046773
-0,250944317838401
-0,251777109328867
-0,25256971748453
-0,253395882935162
-0,254314373378521
-0,25536410813337
-0,256560208281933
-0,257891502844052
-0,259319889685964
-0,260781776292796
-0,262191626861684
-0,263447437455146
-0,264437769665004
-0,265049813575703
-0,265177837993225
-0,264731330721774
-0,263642139633619
-0,261869996050963
-0,259405929476405
-0,256273255705851
-0,252526023515104
-0,248245020336339
-0,243531645561863
-0,238500142868851
-0,233268824187145
-0,227951005229477
-0,222646398381967
-0,217433671091249
-0,212364780197415
-0,207461543639648
-0,202714723724264
-0,198085686955766
-0,19351049231459
-0,188906060953051
-0,184177912253856
-0,179228827865246
-0,173967736466489
-0,168318102642874
-0,162225153152454
-0,155661377940232
-0,148629891779441
-0,141165422201657
-0,133332884828589
-0,125223701783163
-0,11695019638348
-0,108638543540258
-0,100420858763943
-0,0924270619564565
-0,0847771520457021
-0,077574476385438
-0,0709004803551852
-0,0648112870937283
-0,0593362969805585
-0,0544788252401436
-0,0502186283422378
-0,0465160194848523
-0,0433171523803486
-0,0405599700641191
-0,0381802774212899
-0,0361174045888919
-0,034318981574588
-0,0327444368834283
-0,0313669561361602
-0,0301737797155175
-0,0291648691420037
-0,0283501174594611
-0,0277454074047531
-0,0273679220915023
-0,0272311783036956
-0,0273402772205582
-0,0276878497561345
-0,0282511154203492
-0,0289903796548626
-0,0298491727511326
-0,0307560936870973
-0,0316282758557402
-0,0323762505144298
-0,0329098592466941
-0,0331447688265068
-0,0330090785743016
-0,0324494868507754
-0,0314365018996874
-0,0299682417383044
-0,0280724639483078
-0,0258065919404479
-0,0232556501745393
-0,0205281759310941
-0,0177503278461823
-0,0150585499372354
-0,0125912637114164
-0,0104801413950479
-0,00884155409147158
-0,00776878643701837
-0,00732556400551583
-0,0075413544225646
-0,00840878403194282
-0,00988336768120381
-0,0118855903062611
-0,0143052171430949
-0,017007556420086
-0,0198412654417989
-0,0226471876450434
-0,0252676418550545
-0,0275555600570712
-0,0293828879158371
-0,0306477210969745
-0,0312797452449231
-0,0312436706330845
-0,0305404943956027
-0,0292065730130247
-0,0273106341160371
-0,0249489889827313
-0,0222393160108297
-0,0193134637241392
-0,0163097648822285
-0,0133653593806919
-0,0106089941207811
-0,00815470702303552
-0,00609671626502038
-0,00450573280563145
-0,0034268033993918
-0,00287868181612404
-0,00285462641176883
-0,00332443964867146
-0,00423750481699889
-0,00552653986640924
-0,00711177833330151
-0,00890530082416389
-0,0108152734907719
-0,0127498968896993
-0,0146209233252034
-0,0163466567496765
-0,0178544006785009
-0,0190823615885048
-0,0199810447288565
-0,0205141948325813
-0,0206593363862729
-0,0204079591169889
-0,0197653777298218
-0,0187502750822011
-0,0173939195211273
-0,0157390343243125
-0,013838293437011
-0,0117524249922244
-0,00954792286254715
-0,00729439540489364
-0,00506161681010716
-0,00291638590948243
-0,000919335093505174
0,000878136981411952
0,00243661564028903
0,0037309057857352
0,00475156838524693
0,00550560463497044
0,00601618256292786
0,00632136237673965
0,00647184727215988
0,00652785980764885
0,00655531393829092
0,00662151300654821
0,00679064876771945
0,00711940145745073
0,00765294329633542
0,00842162690700396
0,00943859723546411
0,0106985039274741
0,0121774156114016
0,0138339542046799
0,0156115828368091
0,0174419019293661
0,0192487404182117
0,0209527780258074
0,0224764032756318
0,023748502291272
0,0247088851867134
0,0253120881312985
0,0255303366692006
0,0253555151348354
0,024800053020744
0,0238967067124833
0,0226972792920323
0,0212703779475608
0,0196983548492046
0,018073611180394
0,016494464694206
0,0150607890860938
0,0138696300177063
0,0130109898256391
0,0125639531610569
0,0125933014688675
0,0131467374877153
0,0142528135740487
0,0159196307696974
0,0181343496806559
0,0208635294485249
0,024054286950663
0,0276362442988587
0,0315242081387414
0,0356214988704176
0,0398238218080792
0,0440235461301967
0,0481142324432879
0,0519952276757379
0,055576128910345
0,0587809080101544
0,061551488657942
0,0638505785307125
0,065663582936145
0,0669994625554661
0,0678904461789253
0,0683905675064913
0,0685730601870282
0,0685267133384062
0,0683513561602871
0,0681527000373292
0,0680368148406765
0,0681045487012266
0,0684462139369751
0,0691368540042575
0,0702323767660479
0,0717667891830228
0,0737507005744358
0,0761711802603721
0,0789929662958429
0,082160931634048
0,0856036292033992
0,0892376646592068
0,0929725908166398
0,0967159855086304
0,100378367741129
0,10387762635111
0,107142679667633
0,110116150586323
0,112755923768058
0,115035543719973
0,116943506677183
0,118481587586618
0,119662418540914
0,120506590202215
0,121039578211004
0,121288799477945
0,121281078216639
0,121040750654976
0,120588565036522
0,119941446254858
0,119113100258978
0,118115341024172
0,116959941266543
0,115660745278329
0,114235744840559
0,1127088115172
0,111110802461027
0,109479811014942
0,10786041373583
0,106301865352152
0,104855303719037
0,103570137897147
0,102489893397411
0,101647869193926
0,101063012637056
0,100736434418878
0,100648962884296
0,100760075211513
0,101008445880772
0,101314227395539
0,101583034222408
0,101711450395053
0,101593737227462
0,101129293215881
0,100230325361194
0,098829139418154
0,0968844523779017
0,0943861762692201
0,0913582163600831
0,0878589630087736
0,0839793248610469
0,0798383388337064
0,0755765842533125
0,0713478087529311
0,0673093266841088
0,0636118633645227
0,0603895800503267
0,0577510187147434
0,055771650856912
0,0544886039280625
0,0538979805254114
0,053954991460238
0,0545769094885107
0,0556486331767177
0,0570304478574995
0,0585673996208958
0,0600995731211005
0,0614724952409782
0,0625468803062917
0,0632069894172783
0,0633669920105001
0,06297488263279
0,0620137064404452
0,060500066577002
0,0584801070611524
0,0560233678107526
0,0532150771264403
0,0501475673674114
0,046911561883697
0,0435880805435628
0,0402416478572618
0,0369153674286337
0,0336282597210184
0,0303750612818143
0,0271284695715641
0,0238436065612725
0,0204642840652292
0,016930500230345
0,0131864924111921
0,00918862516114371
0,00491240676521509
0,0003580018438524
-0,00444626563301496
-0,00944275616234313
-0,0145458470312682
-0,0196456886522082
-0,0246141209036313
-0,0293123090292988
-0,0335995195955241
-0,0373423662666933
-0,0404238195138005
-0,0427512958893204
-0,044263218483505
-0,0449335634966549
-0,0447740676031398
-0,0438339532900632
-0,0421972194033711
-0,0399777262371649
-0,0373124642371728
-0,0343535205191432
-0,0312593388977205
-0,028185901757302
-0,0252784448408346
-0,0226642519429733
-0,020446972395488
-0,0187027699945405
-0,017478459627885
-0,0167916304028187
-0,0166326045138837
-0,0169679512992051
-0,0177451756267973
-0,0188981358160106
-0,020352722309323
-0,0220323442733579
-0,0238628239203368
-0,0257763812379675
-0,0277144963635925
-0,0296295528450097
-0,0314852817551126
-0,0332561336933306
-0,0349257939908046
-0,0364851188601979
-0,037929802260116
-0,0392580832878621
-0,0404687733142779
-0,04155982494826
-0,0425275877211387
-0,043366806236486
-0,0440713245258121
-0,0446353746176831
-0,0450552562854813
-0,0453311654918349
-0,0454689059583785
-0,0454812238367756
-0,0453885391069737
-0,04521890596175
-0,0450071124539636
-0,0447929196737634
-0,0446185340351297
-0,0445254937977264
-0,0445512240985055
-0,0447255660094204
-0,04506760894302
-0,0455831489373039
-0,0462630575966514
-0,0470827802216417
-0,0480030920405101
-0,0489721359000709
-0,0499286522959818
-0,0508062031709534
-0,0515380943995373
-0,0520626273459358
-0,0523282646924454
-0,052298284779466
-0,0519545240786795
-0,0512998679774375
-0,0503592416072886
-0,0491789679308409
-0,0478244903897394
-0,0463765913094724
-0,0449263635016106
-0,0435693001293362
-0,0423989472205068
-0,0415006068607003
-0,0409455825948691
-0,0407864208547061
-0,0410535257999129
-0,0417534156945501
-0,0428687556958093
-0,0443601557657405
-0,0461695757347491
-0,0482250449419194
-0,0504462931305846
-0,0527508122317938
-0,0550598323761067
-0,0573037035403514
-0,0594262264101521
-0,0613875682494347
-0,0631655241637981
-0,0647550305623363
-0,0661659932807224
-0,0674196441677529
-0,0685437736807025
-0,0695672912671907
-0,0705146306239667
-0,0714005372221202
-0,0722257485583144
-0,0729740053688401
-0,073610720411179
-0,0740834897793371
-0,0743244721617418
-0,0742544976852081
-0,0737886142016625
-0,0728426484167652
-0,0713402635345715
-0,0692199424921528
-0,066441321074488
-0,0629903387543116
-0,058882763370529
-0,0541657712138722
-0,0489174160603281
-0,0432439862423466
-0,0372754139537977
-0,0311590517988391
-0,0250522555802712
-0,0191142994694228
-0,0134981932318473
-0,00834296824145485
-0,00376695078446101
0,000137547306983918
0,00330781085852997
0,00571240753824773
0,0073509583292289
0,00825211706440502
0,00847001143850921
0,0080794984767654
0,00717065345332357
0,00584293855530699
0,00419948571323763
0,00234188004114872
0,000365752521361389
-0,00164260827779347
-0,00360852521486442
-0,00547009138814996
-0,00717832647983817
-0,00869651746600854
-0,00999898345014211
-0,0110695274387946
-0,0118998305168653
-0,0124880086950774
-0,012837495081614
-0,0129563374817288
-0,0128569229598722
-0,0125560655500809
-0,012075329860737
-0,0114414190224745
-0,0106864352262392
-0,00984782731645764
-0,00896787184062879
-0,00809258810578871
-0,00727005816135463
-0,00654820131960134
-0,00597213098848199
-0,00558129019215558
-0,00540661304413663
-0,00546798617081462
-0,00577228257222205
-0,0063122095027185
-0,00706615347139416
-0,00799912418207479
-0,00906480241822945
-0,0102085935714301
-0,0113714887725298
-0,0124944493693965
-0,0135229668038901
-0,0144114158301776
-0,0151268188837689
-0,0156516745510972
-0,0159855714212445
-0,0161454048843073
-0,0161641306388688
-0,0160881146933021
-0,0159732642501552
-0,0158802356848998
-0,0158691044428154
-0,0159939385801414
-0,0162977370975537
-0,0168081736862555
-0,017534527159258
-0,0184660862629011
-0,019572196541626
-0,0208039806290851
-0,0220976225257591
-0,0233789733322254
-0,024569122159938
-0,0255904915428764
-0,0263729690262454
-0,0268595799476526
-0,0270112413595215
-0,0268102105501613
-0,0262619473320691
-0,0253952380143125
-0,0242605696602295
-0,0229268838041065
-0,0214769673224698
-0,0200018438908825
-0,0185946037655809
-0,0173441467256994
-0,0163293104399042
-0,0156138152768406
-0,015242381019693
-0,0152382682908383
-0,0156023771399725
-0,0163139079307698
-0,0173324663784185
-0,0186013857434828
-0,0200519535564865
-0,0216081743262425
-0,0231916771510948
-0,0247263885879602
-0,0261426341222163
-0,027380400973148
-0,0283915834552656
-0,0291411309715464
-0,0296071186208467
-0,0297798523290738
-0,0296601964494115
-0,0292573657874118
-0,0285864521733321
-0,0276659567636798
-0,0265155745389604
-0,0251544306792686
-0,0235999052698972
-0,0218671100728459
-0,019969006458164
-0,0179170844458525
-0,01572246574402
-0,0133972537953906
-0,0109559343806649
-0,00841663233775161
-0,00580205232758339
-0,00313997119232953
-0,000463201586738981
0,00219099461726154
0,00478200544059899
0,00726738923825253
0,00960468289586539
0,011753336911209
0,0136766066552092
0,0153432371773767
0,0167288035112103
0,017816606429415
0,018598070599306
0,0190726428319128
0,0192472371007776
0,0191353150174271
0,0187557211639115
0,0181314090493808
0,0172881940556335
0,0162536548633353
0,0150562764936865
0,0137248897031493
0,0122884175447828
0,0107758955686854
0,00921669251404904
0,0076408280812822
0,00607926708037622
0,00456406715757659
0,00312827096756455
0,00180546194128084
0,000628942909617861
-0,000369455331267872
-0,00116087797328424
-0,00172115752891695
-0,00203258803431552
-0,00208559114720494
-0,00188009309653408
-0,00142643971176236
-0,000745703495188014
0,000130719803378607
0,0011622708576834
0,0023011232205107
0,00349472938106762
0,00468886535278943
0,00583096889178369
0,00687352815842367
0,00777725911937977
0,0085138137617481
0,00906778781004475
0,00943784457480693
0,00963683729299183
0,0096908906208993
0,00963748627227942
0,00952268091829945
0,00939765903111601
0,00931488258971626
0,0093241378741223
0,00946879309337334
0,00978256752363028
0,0102870737375207
0,0109903322095996
0,0118863770717919
0,0129559797603468
0,0141684216192938
0,0154841555901633
0,0168581190858484
0,0182434022146262
0,0195949432774432
0,0208729203204863
0,0220455343691162
0,0230909350178886
0,0239981179050387
0,0247667195980554
0,0254057401358972
0,0259313274583662
0,0263638515069135
0,0267245698832181
0,0270322340375151
0,0272999997323821
0,0275329854714524
0,0277267683152777
0,0278670218701293
0,0279303930187357
0,0278865914659047
0,0277015403982022
0,0273413193209249
0,0267765329762645
0,0259866733893914
0,0249640134041006
0,0237165842957692
0,0222698481463663
0,0206667746195746
0,0189661646171271
0,0172392196181597
0,0155645221804286
0,0140217553947601
0,012684631928751
0,0116136125871602
0,0108490582568079
0,0104054693913783
0,0102674199120009
0,0103876885653546
0,010687936476511
0,011062085688318
0,011382334678457
0,0115075208555185
0,0112933258639854
0,0106036359999363
0,00932223408895739
0,00736392430811728
0,00468418646502496
0,00128652435537808
-0,0027731888711651
-0,00738586576674846
-0,0123921107781238
-0,0175888530757017
-0,0227393991645968
-0,0275863314112566
-0,0318664485709345
-0,0353267703336975
-0,0377405245469125
-0,0389220123047696
-0,0387393053405059
-0,0371238683058624
-0,0340764054075258
-0,0296684908329694
-0,0240398355473366
-0,0173913469315898
-0,00997442921478956
-0,00207722974942318
0,00599126009244285
0,01391820481327
0,0214039219551843
0,0281777937735988
0,0340121076446513
0,0387330034120204
0,0422279226946166
0,0444492071296011
0,0454137598309745
0,0451989468883466
0,0439351546200887
0,041795617355272
0,0389842774055445
0,0357225259258385
0,0322356977951668
0,0287401576651712
0,0254317244645382
0,0224760480578849
0,0200013870693183
0,018094055055271
0,016796617291753
0,0161087454679478
0,0159904836208511
0,0163675541277005
0,0171382429139273
0,018181350470474
0,0193646791577323
0,0205535443732241
0,0216188423545917
0,022444274247638
0,0229324076526932
0,0230093462648449
0,0226278692290078
0,021768989177605
0,020441957651935
0,0186828160240682
0,0165516476854437
0,0141287326725597
0,0115098393684068
0,00880091015535622
0,00611240981600119
0,003553607924631
0,00122706010380681
-0,000776461727066444
-0,00238236287818844
-0,00353574682960204
-0,00420390581463601
-0,00437766904368392
-0,00407154854322308
-0,00332267921646438
-0,00218860887337591
-0,000744052895387717
0,00092321628166525
0,00271712598599631
0,00453844906881224
0,00629005603782776
0,00788198149824962
0,00923602053672733
0,0102895959787124
0,0109986794419836
0,0113396056526439
0,0113096872424313
0,010926611884303
0,0102266801547226
0,00926201562192346
0,00809694315674563
0,00680378264507999
0,0054583393825761
0,00413538688641112
0,00290443156686936
0,00182602210618044
0,00094882151050358
0,000307600031195604
-7,77629445767452E-05
-0,00020225499359072
-7,47459953685223E-05
0,000283828187035317
0,000842928302541645
0,00156529469904552
0,00241000302222605
0,0033354432840477
0,00430199122114087
0,0052741772560432
0,00622220963051106
0,0071227699550402
0,00795906624401237
0,0087201948359227
0,00939992285904387
0,00999505208356419
0,0105035590500359
0,0109227225387393
0,0112474465393499
0,0114689653278754
0,0115740790902665
0,0115450172085487
0,0113599664248027
0,0109942379419904
0,0104219866908269
0,00961834285924301
0,00856177502858045
0,00723647948563326
0,00563458365066455
0,00375796366168202
0,00161950589395003
-0,000756313066234534
-0,00333359771016922
-0,00606596402729459
-0,00889817447651841
-0,0117683653878731
-0,0146107071108933
-0,0173583037872626
-0,0199461231739364
-0,0223137487970627
-0,0244077665269371
-0,0261836334542566
-0,0276069252842398
-0,0286539147925369
-0,0293114929289373
-0,0295765004167941
-0,029454585969908
-0,0289587430973114
-0,0281076976401336
-0,0269243209317375
-0,0254342286955607
-0,0236646950890902
-0,0216439677807805
-0,0194010179906306
-0,0169657042433234
-0,0143692757642303
-0,011645096385207
-0,00882943725958288
-0,00596217018812899
-0,00308719502647755
-0,000252454824581326
0,00249057035799226
0,00508794876281546
0,00748495849525461
0,00962825799066436
0,0114684359167677
0,0129627574658778
0,0140778845134619
0,0147923262723287
0,0150983777670076
0,0150033268000749
0,0145297551211545
0,0137148233065702
0,0126085066384069
0,0112708348417812
0,00976827471315298
0,00816947394896756
0,00654064962836278
0,0049409495320378
0,00341813402074774
0,00200491777905086
0,000716273866880673
-0,000452060831340714
-0,00152372522464276
-0,00254046656750525
-0,00355952312859433
-0,00464982249044168
-0,00588725921343507
-0,00734939511250709
-0,00910997891998643
-0,0112337042976616
-0,0137716131765062
-0,016757505186038
-0,0202056363664098
-0,0241098870303664
-0,0284444575627981
-0,0331660218439539
-0,0382171415997269
-0,0435306321396431
-0,0490344806822294
-0,0546568610818099
-0,0603307691548987
-0,0659978237798115
-0,0716108400052401
-0,0771348776096871
-0,0825465948143981
-0,0878318823854113
-0,0929819065096171
-0,0979878369370111
-0,10283466738824
-0,107494636683524
-0,111920822145279
-0,11604149518996
-0,119755799846253
-0,122931239253261
-0,125403337901188
-0,126977696883876
-0,127434487018137
-0,126535243618742
-0,124031651191143
-0,119675850266576
-0,11323167462129
-0,104486145319512
-0,0932605152500746
-0,0794201770661331
-0,0628828175343926
-0,0436243170583383
-0,0216820457206636
0,00284461517990023
0,0297965081502548
0,0589594874260761
0,0900713879288728
0,122830665469593
0,156906101062872
0,191946912450303
0,227592616899646
0,263482040218522
0,299260962891645
0,334588027096116
0,369138687008978
0,402607156431212
0,434706478585934
0,465166999603876
0,493733657562515
0,520162593160489
0,544217639270076
0,565667251270825
0,584282398378152
0,599835851858151
0,612103185929057
0,620865660771204
0,625914995675383
0,627059876193121
0,624133884432295
0,61700440774612
0,605581977644617
0,589829425164077
0,569770215677071
0,545495346703119
0,517168255064348
0,48502728026127
0,449385362210572
0,410626804582789
0,369201099670629
0,325613976261696
0,280415987790525
0,23418909444789
0,187531801758242
0,141043493275131
0,0953086326999099
0,0508815096707333
0,00827216496753243
-0,0320659414213438
-0,0697460563882275
-0,104455712388816
-0,135961551339036
-0,164111324691056
-0,188833134768019
-0,210132104698288
-0,228084768330478
-0,242831552585456
-0,254567779915511
-0,263533646935037
-0,270003637749898
-0,274275809586236
-0,276661347837387
-0,277474732377328
-0,277024792098322
-0,275606855323518
-0,273496134764682
-0,270942421053178
-0,268166101547696
-0,26535547303349
-0,262665278826475
-0,260216372493036
-0,258096390898404
-0,256361307100941
-0,255037726984489
-0,254125790810385
-0,253602540693771
-0,253425616431207
-0,253537144748379
-0,25386769098631
-0,254340148007635
-0,254873445403371
-0,255385973660857
-0,255798633325572
-0,256037438510429
-0,256035626969783
-0,255735254396511
-0,255088277103105
-0,254057152902974
-0,252615012674912
-0,250745472718835
-0,248442168848646
-0,245708096077718
-0,242554832374803
-0,239001711878998
-0,23507499362619
-0,230807048567826
-0,226235563340734
-0,221402737067207
-0,216354430518615
-0,211139217926767
-0,205807292396523
-0,200409187003946
-0,194994294741307
-0,189609199685687
-0,184295866148323
-0,179089768231959
-0,174018074803553
-0,16909802993333
-0,164335682396695
-0,159725116847432
-0,15524832206554
-0,150875798207991
-0,146567956939063
-0,142277309066945
-0,137951368660109
-0,133536136405067
-0,128979964477202
-0,124237556607767
-0,119273825708563
-0,114067321435231
-0,108612953622369
-0,10292377476788
-0,0970316435811412
-0,0909866678949292
-0,0848554130545657
-0,0787179541111791
-0,0726639390028104
-0,0667879077879509
-0,0611841731182157
-0,0559416041677937
-0,0511386668480964
-0,046839056284473
-0,0430882145880651
-0,0399109615374164
-0,037310383491008
-0,0352680336181143
-0,0337454021157428
-0,0326865262147427
-0,0320215335746835
-0,0316708548945292
-0,0315498062469811
-0,0315732306656826
-0,0316599015872871
-0,0317364255127189
-0,0317404335614642
-0,0316229160243582
-0,0313496244152019
-0,0309015356370673
-0,030274436930585
-0,0294777435216342
-0,0285326999389052
-0,0274701390910182
-0,0263279802340887
-0,0251486393542473
-0,0239765058521298
-0,0228556112475605
-0,0218275827929779
-0,0209299412153088
-0,020194770638649
-0,0196477626102209
-0,0193076166118908
-0,0191857669424417
-0,0192863998999923
-0,0196067244281238
-0,0201374619693065
-0,0208635251260334
-0,0217648579502894
-0,0228174117461851
-0,023994228339268
-0,0252665977364179
-0,0266052496303707
-0,0279815296284318
-0,0293685031625286
-0,0307419247247472
-0,0320810091826817
-0,0333689468897086
-0,0345931158450601
-0,0357449622269225
-0,0368195442554851
-0,0378147617616278
-0,0387303225990565
-0,0395665242670217
-0,0403229518476113
-0,0409972088603941
-0,0415838037320048
-0,042073309909236
-0,0424519018969446
-0,0427013434343379
-0,0427994694729015
-0,0427211633281134
-0,0424397877375137
-0,0419289873190594
-0,0411647437823044
-0,0401275375491782
-0,038804452791787
-0,0371910589808506
-0,0352929114003766
-0,0331265351347461
-0,0307197900846727
-0,0281115560227905
-0,0253507232904761
-0,0224945228328185
-0,0196062752243539
-0,0167526787463906
-0,0140007886251291
-0,0114148611263674
-0,00905324613702841
-0,0069655098210671
-0,00518995551257689
-0,00375168747392123
-0,00266133041159358
-0,00191447994785484
-0,00149191804590381
-0,00136058510505991
-0,00147525937396377
-0,00178085648953094
-0,00221522904461205
-0,00271231949042056
-0,00320550041667039
-0,00363092508629977
-0,00393070849168176
-0,00405576539780147
-0,00396814682338607
-0,00364273991194729
-0,00306822757257731
-0,00224724264363506
-0,00119569527615723
5,87001495293424E-05
0,001478623290596
0,00301994847956991
0,00463498188808058
0,00627593408552832
0,00789840240846002
0,00946462669789244
0,0109462867545582
0,0123266313980073
0,0136017672222363
0,0147809885424193
0,0158860958004978
0,0169497236494245
0,0180127768339619
0,0191211457933654
0,0203219383850565
0,0216595132335086
0,0231716287814999
0,0248860263748518
0,0268177436963113
0,0289674068156973
0,031320677578543
0,0338489428431309
0,0365112299525643
0,0392572270902595
0,0420311868944986
0,0447764060383535
0,0474399107358982
0,0499769450284951
0,0523548596029167
0,0545560353041993
0,0565795458099368
0,0584413632999002
0,0601730317667094
0,0618188648891008
0,0634318577495049
0,0650686222309337
0,0667837534337439
0,0686240993196944
0,0706234311103
0,0727979941655901
0,0751433584066432
0,0776328880287764
0,0802180200745966
0,0828303912865091
0,0853856954709032
0,0877890032927326
0,0899411465511074
0,0917456715540982
0,09311581044601
0,0939809108285275
0,0942918041091445
0,094024678596936
0,0931831471657016
0,0917983504375219
0,0899271014083823
0,0876482414271671
0,0850575255984384
0,0822614746158688
0,0793707090085045
0,0764933138012453
0,0737287640183654
0,0711628763446141
0,0688641461074708
0,0668816919048627
0,0652448759375904
0,0639645112104999
0,0630354222701753
0,0624400077675276
0,0621523719954261
0,0621425560989796
0,0623804109394386
0,0628387109525038
0,0634952055956187
0,0643334320336511
0,0653422565123769
0,066514257741316
0,0678431986602371
0,0693209395682562
0,0709342147520151
0,0726617191725938
0,0744719286079515
0,0763220078270953
0,0781580533844472
0,0799167809331235
0,0815286150100471
0,082921987111508
0,0840285108242405
0,0847885947531329
0,0851569862268121
0,0851077186861556
0,084637966131673
0,0837703869704551
0,0825536603171852
0,0810610694326806
0,0793871556018087
0,0776426357416567
0,0759479325085793
0,0744257920550107
0,0731935500014061
0,07235564257503
0,0719969437722267
0,0721774423136917
0,0729286603005387
0,0742520692314374
0,0761195919246178
0,0784761062204521
0,0812437037925897
0,0843273194845312
0,0876212452879299
0,0910159867634571
0,0944049123513198
0,0976901869633011
0,100787565305808
0,10362973847248
0,106168067435603
0,108372685442381
0,110231093941201
0,111745500532693
0,112929241878981
0,113802692072827
0,11438907413937
0,114710569662668
0,114785063444469
0,11462377432553
0,114229919917914
0,113598453313129
0,112716805167055
0,111566475067208
0,110125249716065
0,108369787261552
0,106278298780509
0,103833077830424
0,101022672492716
0,0978435544513493
0,0943012079823833
0,0904106294606353
0,0861962869987695
0,0816916335674387
0,0769382912211286
0,07198502743289
0,0668866284586161
0,0617027431656512
0,0564967299296453
0,0513344963694505
0,0462832843770977
0,0414103279527031
0,0367813038987184
0,0324585082285226
0,028498724130073
0,0249507974805903
0,0218529975761167
0,019230306150351
0,0170918379785161
0,0154286422865526
0,0142121576750985
0,0133935882224091
0,012904431613982
0,0126583217956885
0,012554252669683
0,0124811331106819
0,0123234973354403
0,011968070566703
0,0113107809261485
0,0102637268539153
0,00876156546156074
0,00676678830899752
0,00427340034842867
0,00130861382607818
-0,00206769427893322
-0,0057658454507095
-0,0096714436882017
-0,0136523959004608
-0,0175674153323465
-0,0212754176657277
-0,0246451275915691
-0,0275641766667577
-0,0299469960261949
-0,0317408895366189
-0,0329298082947549
-0,0335355250969777
-0,0336161126396751
-0,0332618441030532
-0,0325888406665303
-0,0317309693092793
-0,0308306302653795
-0,0300291548010223
-0,0294575536774837
-0,029228313409472
-0,0294288356569253
-0,0301169645219131
-0,0313188612230313
-0,0330292827231823
-0,0352141188581999
-0,0378148594942596
-0,0407545152829422
-0,0439444151770938
-0,0472912588249469
-0,0507038146960175
-0,0540987222675543
-0,0574049706263142
-0,0605667740460855
-0,0635447321569679
-0,066315331534987
-0,0688690005012262
-0,0712070550884259
-0,0733379602843759
-0,0752733698448495
-0,0770243981880987
-0,0785985220813401
-0,0799974155718768
-0,0812159001247893
-0,082242056913355
-0,0830584143768735
-0,0836440056570515
-0,0839769995476527
-0,0840375540571665
-0,0838105284583401
-0,0832877180992226
-0,0824693421021471
-0,0813646092671696
-0,0799913008290452
-0,0783744272149118
-0,0765441262365036
-0,0745330598782199
-0,0723736260584417
-0,0700953238869213
-0,0677225935950727
-0,0652733974170438
-0,0627587213104331
-0,0601830691225104
-0,0575459026323623
-0,0548438660469528
-0,0520735349431887
-0,0492343586217893
-0,0463314298163617
-0,043377721290793
-0,0403954753733052
-0,0374165157746319
-0,0344813629907799
-0,0316371638116883
-0,0289345785203719
-0,0264238921558536
-0,0241507153822661
-0,0221517049081912
-0,0204507552332247
-0,0190560892124447
-0,0179586056035252
-0,0171317331098815
-0,0165329022744704
-0,0161065919100266
-0,0157887504994404
-0,01551225055201
-0,0152129195788917
-0,0148356170002819
-0,0143398000755077
-0,0137040474962288
-0,0129290853261059
-0,012038980389707
-0,0110803205958609
-0,0101193762863042
-0,00923741575322054
-0,00852451521835715
-0,00807234346848822
-0,00796650103501455
-0,00827904398737139
-0,00906181823677559
-0,010341171797557
-0,0121145047102738
-0,014348968645591
-0,0169824534874266
-0,0199268116322433
-0,0230730884520612
-0,026298364949055
-0,0294736897119534
-0,0324724924249592
-0,0351788369312207
-0,0374948902882285
-0,0393470528891468
-0,0406903068450197
-0,0415104851789827
-0,0418243301990477
-0,0416773815640059
-0,0411398988283975
-0,0403011665949917
-0,0392626419771787
-0,0381304761125307
-0,0370079697969249
-0,0359885075330293
-0,0351494576585987
-0,034547435161755
-0,0342152071884249
-0,0341603895729
-0,0343659470293429
-0,0347923806413135
-0,0353813734382942
-0,0360605756625345
-0,0367491509114342
-0,0373636750871784
-0,0378239817700801
-0,0380585776001645
-0,0380093048531942
-0,0376349996192877
-0,0369139759954209
-0,0358452525820749
-0,0344485208730672
-0,0327629303321289
-0,0308448279033105
-0,0287646376691404
-0,0266030981818771
-0,0244470908447737
-0,0223852939498708
-0,0205038857978704
-0,0188824993810711
-0,0175906032295263
-0,0166844508583913
-0,0162047070700267
-0,0161748249289554
-0,0166002137195134
-0,0174682063020896
-0,0187488043028188
-0,0203961515462532
-0,0223506600946925
-0,0245416893020825
-0,0268906567856625
-0,029314441826912
-0,0317289273855549
-0,0340525178260294
-0,0362094668641205
-0,038132855296536
-0,0397670716117487
-0,0410696709479819
-0,0420125187263855
-0,0425821635714679
-0,0427794279696169
-0,0426182519368467
-0,0421238716547147
-0,0413304581405954
-0,0402783770979291
-0,0390112569881438
-0,0375730655379279
-0,0360053937309229
-0,0343451303039727
-0,0326226796123176
-0,0308608334065192
-0,0290743556693564
-0,0272702831885842
-0,025448887563772
-0,0236051916252971
-0,0217308892973097
-0,0198164866415168
-0,01785346601274
-0,0158362764742852
-0,0137639719188056
-0,0116413522352539
-0,00947950947916322
-0,00729573625960895
-0,00511281254297687
-0,00295774450194809
-0,000860079662449964
0,00115003822308017
0,00304388709970053
0,00479606325970156
0,00638607424035111
0,00779947437964655
0,00902843309046894
0,0100716804317665
0,0109338349889049
0,0116241798568613
0,0121550079910777
0,0125397030759015
0,0127907519928838
0,0129178968766409
0,012926627141114
0,0128171850178688
0,0125842140900883
0,0122171226531619
0,0117011674054415
0,0110191937691556
0,0101539032523489
0,00909046171556483
0,00781922054751629
0,00633829975849242
0,00465578048925732
0,00279127522341703
0,000776685974516277
-0,00134397906837482
-0,00351578611507448
-0,00567502768743367
-0,00775223740482095
-0,0096758825289083
-0,0113764850979072
-0,0127908767380702
-0,0138662691896122
-0,0145638247688988
-0,0148614389197383
-0,0147554990854143
-0,0142614566622826
-0,0134131363527119
-0,012260802995517
-0,0108681022613936
-0,0093080806437931
-0,00765856451972132
-0,00599723139376907
-0,00439673407370906
-0,00292023778330277
-0,00161770077783721
-0,000523172905658042
0,000346691964216053
0,00099280843539019
0,00143251906421763
0,00169724628701142
0,00182913723602497
0,00187698053232979
0,00189172985178732
0,00192199710500236
0,00200987604605113
0,00218742517928324
0,00247407965867556
0,00287518054215111
0,00338171326814261
0,00397124389204057
0,00460994045086433
0,00525547659848264
0,0058605432623805
0,00637664775451575
0,00675786251947737
0,00696419898434703
0,00696432444870408
0,00673740766641036
0,00627396545269175
0,00557568023613769
0,00465425788356799
0,00352948701754515
0,00222673672416205
0,000774181749192372
-0,000799932127562454
-0,00246967735722347
-0,00421322153412144
-0,00601379048640417
-0,00785970295220046
-0,00974346232488331
-0,0116599946853916
-0,0136042196412485
-0,0155682216484197
-0,0175383461478791
-0,0194925707475536
-0,0213984933662462
-0,0232122364422195
-0,0248784919425156
-0,0263318320596046
-0,0274992937373908
-0,0283041219940397
-0,0286704387518225
-0,0285285017610804
-0,0278201422762302
-0,0265039283117925
-0,0245595976018253
-0,0219913423714401
-0,0188296046377401
-0,0151311503641347
-0,0109773246749864
-0,00647053738979086
-0,00172917582742601
0,00311872269416866
0,00794259502674333
0,012616752586273
0,0170275024572913
0,0210794441602123
0,0247004529775033
0,0278449581616106
0,0304952556466714
0,0326607494720154
0,0343751813170026
0,0356920696482708
0,0366787254669154
0,0374093282924138
0,0379576239832837
0,0383898386260456
0,0387583871334198
0,0390968925167724
0,0394169270632466
0,0397067483679772
0,0399321426091322
0,0400393176621061
0,0399596234155003
0,0396157292954338
0,0389287713437005
0,0378259025388442
0,0362476464930326
0,0341544685929048
0,0315320386379164
0,028394759925089
0,0247872731966976
0,0207837990444296
0,0164853468198477
0,0120149788367345
0,00751146315358031
0,00312176547966405
-0,00100708792002425
-0,00473620471237051
-0,00794251091304757
-0,0105254045692514
-0,0124119429313542
-0,0135602428483318
-0,0139609105554686
-0,0136364632821366
-0,0126388495935803
-0,011045306994956
-0,00895290428447777
-0,00647219479651896
-0,00372045002758896
-0,000814949189116491
0,00213322992620957
0,00502453579914861
0,0077750890193643
0,0103194601303014
0,0126120044195248
0,0146267910008791
0,0163562653626335
0,0178088680172333
0,0190058911775227
0,0199778870183608
0,0207609442048439
0,0213931256486694
0,0219113138752952
0,0223486467771572
0,0227326529539777
0,0230841198949225
0,0234166573265227
0,0237368586296883
0,0240449203210998
0,0243355562907328
0,0245990407367208
0,0248222303143139
0,0249894487432894
0,0250831612278215
0,0250844157364809
0,0249730772474545
0,0247279235317226
0,0243267018236427
0,0237462611369021
0,0229628731145886
0,0219528352031074
0,0206934156397557
0,019164153976641
0,0173484787320076
0,0152355511718529
0,0128221972807202
0,0101147543542389
0,00713063897260476
0,00389944250970713
0,000463380031823883
-0,00312304231955425
-0,00679422037475533
-0,0104755160986687
-0,0140861289670944
-0,0175426364014329
-0,0207629980732069
-0,0236707655205306
-0,0261992042127804
-0,0282950238053033
-0,0299214257520962
-0,0310602154985237
-0,031712786796329
-0,0318998639715245
-0,0316599783063651
-0,0310467499976892
-0,0301251398207347
-0,0289669171147271
-0,0276456561626519
-0,0262316158804388
-0,0247868740934601
-0,0233610757525898
-0,0219881146285524
-0,0206840029438439
-0,0194460976885321
-0,0182537523638821
-0,0170703561388105
-0,0158466170949966
-0,0145248505861641
-0,0130439553307132
-0,0113447050791386
-0,00937495716779304
-0,00709438348321657
-0,0044783644196632
-0,0015207499868737
0,00176472036297851
0,00534444302565607
0,0091664109243447
0,0131629864186349
0,017254759279113
0,0213551767124029
0,0253755721290699
0,0292301900376158
0,0328408090380858
0,0361406034694846
0,0390769539636036
0,0416130123411474
0,0437279389057172
0,0454158504691066
0,0466836346349362
0,0475478892631642
0,0480313258640235
0,0481590240947945
0,047954936391536
0,0474390151927016
0,0466252718848392
0,0455209817382166
0,0441271310826784
0,0424400726523904
0,040454224789162
0,0381655327919212
0,0355753180989976
0,0326940831018162
0,029544823121173
0,0261654254809603
0,0226098075201588
0,018947555306582
0,0152619633785304
0,0116465305503462
0,00820012314647871
0,00502115978842671
0,0022012866629239
-0,000180913160578809
-0,00206560703235942
-0,0034162547433416
-0,00422254331163756
-0,00450137933869264
-0,0042957669188942
-0,00367158452598536
-0,00271246530426174
-0,00151316402925947
-0,000171943633403769
0,00121738018762378
0,00257304717455999
0,00383193502698601
0,0049545102292436
0,00592767040291406
0,00676517697600158
0,00750558396961301
0,00820778909283999
0,00894454750251498
0,00979447718571867
0,0108332306238188
0,0121245965095025
0,0137123190261045
0,015613377553747
0,0178133596564788
0,0202643937305012
0,0228858986659601
0,0255681740497483
0,0281786158171417
0,0305701193127255
0,0325910435726139
0,0340959733819745
0,0349564409819204
0,0350707634337851
0,0343722149283427
0,0328348801921716
0,0304767146601296
0,0273595540175052
0,0235860518473702
0,0192937599080471
0,0146467818040348
0,00982561030065873
0,00501588746602037
0,000396895903223299
-0,00386940555848977
-0,00764804596201012
-0,0108387643200821
-0,0133813074552239
-0,0152580122607968
-0,0164935872232348
-0,017152212583809
-0,0173322654567129
-0,0171591316398267
-0,0167766790704982
-0,0163380321046913
-0,0159962985576862
-0,0158958645610955
-0,0161647914799566
-0,0169087333528461
-0,0182066537810096
-0,020108470365566
-0,0226346052119066
-0,0257772833044654
-0,0295033064656048
-0,0337579463823321
-0,0384695501206644
-0,0435544368530162
-0,0489216835094778
-0,0544774454304109
-0,0601285296211789
-0,0657850253186681
-0,0713618911833694
-0,0767794925831629
-0,0819631689977299
-0,0868419846970947
-0,0913468713281965
-0,095408406466766
-0,0989544869057303
-0,101908150444844
-0,104185777494627
-0,105695867193228
-0,10633853576818
-0,106005831625183
-0,10458290596849
-0,101950023188134
-0,0979853446952497
-0,0925683756362484
-0,085583927577051
-0,0769264228434906
-0,0665043482350772
-0,0542446574124903
-0,040096922239252
-0,0240370433345742
-0,00607034853959715
0,0137660658039475
0,0354018628238612
0,0587329356758495
0,0836218510973615
0,109899251041165
0,137366151954581
0,165797038035766
0,194943606555379
0,22453899281617
0,254302282074163
0,283943107885349
0,313166142259882
0,341675303181273
0,369177538796726
0,395386093036416
0,42002321145718
0,442822304573634
0,463529643852242
0,481905717510933
0,497726413922571
0,510784224982656
0,520889666537088
0,527873095709205
0,53158706541475
0,531909296339891
0,528746270085655
0,522037359921738
0,511759325001779
0,497930908324821
0,480617206748943
0,459933431019048
0,436047651763667
0,409182138383279
0,379612943725262
0,347667467433159
0,313719840819822
0,278184109067513
0,241505333098178
0,204148882438672
0,166588329868189
0,129292476827754
0,0927121249855212
0,0572672557230294
0,0233352803956174
-0,00875902160931835
-0,0387513505411946
-0,0664431225175527
-0,0917038559470243
-0,114470646200761
-0,134744847190172
-0,152586249377429
-0,168105191708566
-0,181453158737312
-0,192812485357501
-0,202385815259592
-0,210385934621208
-0,217026532837978
-0,222514334232247
-0,227042908684539
-0,230788317184333
-0,233906593679085
-0,236532920433884
-0,238782232260143
-0,240750894964173
-0,242519051646908
-0,244153219844156
-0,245708751964098
-0,247231836471828
-0,248760810094287
-0,250326661976775
-0,251952727860709
-0,253653684348854
-0,255434049362183
-0,257286465944519
-0,259190086177261
-0,261109376775732
-0,262993637959507
-0,264777465695039
-0,266382300573766
-0,267719102877364
-0,268692082697915
-0,269203306760768
-0,269157909848145
-0,268469567121176
-0,26706584078409
-0,264893004409976
-0,261919971902032
-0,258141013588133
-0,253577024709572
-0,248275214647834
-0,242307200102049
-0,235765602673532
-0,22875936147364
-0,221408065719492
-0,213835683544719
-0,206164106122747
-0,198506937770994
-0,190963942561644
-0,183616508186439
-0,176524412696884
-0,169724085377643
-0,163228446753606
-0,157028302612854
-0,151095160962691
-0,145385246473603
-0,139844410537351
-0,134413581382103
-0,129034370754939
-0,123654452596239
-0,118232354063567
-0,112741347638694
-0,107172200826088
-0,101534621904547
-0,0958573304233521
-0,0901867733996361
-0,0845845963780969
-0,0791240570456751
-0,0738856332112274
-0,0689521229826837
-0,064403560532552
-0,0603122749312753
-0,0567384025202269
-0,0537261268881685
-0,0513008675693199
-0,0494675729251565
-0,0482101988368707
-0,0474923777752377
-0,0472592075824699
-0,0474400207375594
-0,0479519373080855
-0,0487039617588464
-0,049601357817761
-0,0505500280371038
-0,0514606356238362
-0,0522522343616775
-0,052855215621161
-0,0532134361641053
-0,053285452494887
-0,0530448522344597
-0,0524797355728645
-0,0515914557342682
-0,0503927725367715
-0,0489056044486521
-0,0471585800418763
-0,0451845887372043
-0,0430185138645694
-0,0406953002813761
-0,0382484671464115
-0,0357091278495951
-0,0331055279783864
-0,0304630631022187
-0,0278046953498762
-0,0251516548633965
-0,0225242918817299
-0,0199429388763822
-0,01742864996225
-0,015003705528775
-0,0126918013029239
-0,010517879519651
-0,00850760157332401
-0,00668650225978257
-0,00507890146840618
-0,00370667647050261
-0,00258801421493775
-0,0017362668357277
-0,00115902472256644
-0,000857501089649732
-0,000826292236527781
-0,00105354174328279
-0,00152149841543978
-0,00220742079319862
-0,00308474920034906
-0,00412444277566434
-0,00529636599137539
-0,0065706079858328
-0,00791862858799788
-0,00931414596130608
-0,0107337100460304
-0,0121569403262037
-0,0135664422712789
-0,0149474503762581
-0,0162872735461673
-0,0175746377749739
-0,0187990296603998
-0,019950141391571
-0,0210175037375756
-0,0219903697074999
-0,0228578804066066
-0,0236095094000864
-0,0242357462980977
-0,0247289480344282
-0,0250842608831355
-0,0253005004597392
-0,0253808726728212
-0,0253334265963707
-0,0251711500811567
-0,0249116490062706
-0,0245763887244571
-0,0241895180424219
-0,023776338081199
-0,0233615165663001
-0,0229671787601552
-0,0226110262698574
-0,022304642162699
-0,0220521341770346
-0,0218492475526516
-0,0216830465879069
-0,0215322220512982
-0,0213680335075401
-0,0211558455116581
-0,0208571687452886
-0,0204320756087051
-0,0198418280832512
-0,0190515365386793
-0,0180326631728276
-0,0167651933054247
-0,0152393209269558
-0,0134565296959986
-0,0114299939937828
-0,0091842730386725
-0,00675432043791992
-0,00418387796821971
-0,00152336225452196
0,00117261651052147
0,00384794556992896
0,00644774525474197
0,00892098946222301
0,0112228672505377
0,0133167667789347
0,0151757938957754
0,0167837719315618
0,018135703661565
0,0192377082585913
0,0201064731377608
0,0207682813931087
0,0212576892925567
0,0216159350853544
0,0218891609194352
0,0221265252494657
0,0223782753586772
0,0226938402400285
0,0231199946922213
0,0236991373751721
0,0244677195672008
0,0254548577720393
0,0266811619050694
0,0281578108298744
0,0298859074815176
0,0318561454765955
0,0340488167851215
0,0364341847204144
0,0389732375690755
0,041618825465194
0,0443171669757607
0,0470096931663244
0,049635176958004
0,052132075951156
0,0544409993052495
0,0565071953939724
0,0582829482361842
0,0597297682054001
0,0608202667990898
0,0615396163304841
0,0618865127672388
0,0618735825678332
0,0615272008486704
0,0608867169190704
0,0600031123684039
0,0589371447872436
0,0577570552958505
0,0565359390800563
0,0553488941367957
0,0542700738251457
0,0533697733093731
0,0527116786002716
0,0523503998576246
0,0523293983204966
0,0526793991735091
0,0534173614249345
0,0545460511155517
0,0560542366505442
0,0579174956133365
0,0600995921327212
0,0625543539679575
0,065227950418608
0,0680614476038724
0,0709934983650634
0,0739630118045706
0,0769116439190202
0,0797859571901106
0,0825391141169737
0,0851319975162543
0,0875336881239377
0,0897212757859732
0,0916790315740164
0,0933970209208948
0,0948692881473689
0,0960917860691478
0,0970602563525964
0,0977682830805643
0,0982057407140353
0,098357836759733
0,0982049090701048
0,0977230797068826
0,0968857953614844
0,0956662037152958
0,0940402323463844
0,0919901590751205
0,089508397323324
0,0866011738954579
0,0832917550763674
0,0796228837321571
0,075658126549614
0,0714818954184484
0,0671979964197438
0,0629266676830926
0,0588001853234938
0,0549572352506796
0,0515363578559491
0,0486688627649398
0,0464716736287736
0,0450405919394556
0,0444444604420549
0,0447206602693561
0,0458722940710625
0,0478672958288156
0,0506395750514955
0,0540921589051485
0,0581021519116384
0,0625272006592616
0,0672130411435462
0,0720016277925693
0,0767393022694829
0,081284460076687
0,0855142137379233
0,0893296295243285
0,0926592239114664
0,0954605373358384
0,0977197458181496
0,0994494142803877
0,100684627746938
0,101477847964983
0,101892925128951
0,101998741648709
0,10186297453456
0,101546435278372
0,101098384412552
0,100553128080503
0,0999280939255355
0,0992234626348546
0,0984233093921321
0,0974980958107376
0,0964082561525959
0,0951085485979357
0,0935527977087539
0,0916986402536485
0,0895119029585908
0,0869702848824787
0,0840660842679319
0,0808077936126274
0,0772204800278135
0,0733449630368951
0,0692358913637136
0,0649588973819505
0,0605870674154784
0,0561970043720697
0,0518647744496691
0,0476620220023912
0,0436525079824509
0,03988928112936
0,0364126318870316
0,0332489122682253
0,0304102362273451
0,027895010035082
0,0256891855624441
0,0237680852024869
0,0220986181136357
0,020641694884679
0,0193546515637332
0,0181935128584933
0,0171149556898173
0,01607787473916
0,0150444971936505
0,0139810403517198
0,0128579490440713
0,0116497863231126
0,0103348777135663
0,00889482455152851
0,00731400471226986
0,00557916957353319
0,0036792256762958
0,00160526044556534
-0,00064916356072017
-0,00308745872107695
-0,00570925576254772
-0,00850952119275623
-0,011477653539051
-0,0145966774354687
-0,0178426574972733
-0,0211844449635285
-0,0245838497647605
-0,0279963004603521
-0,0313720167185402
-0,0346576766765896
-0,0377985180574812
-0,0407407709199135
-0,0434342848525549
-0,0458351873435213
-0,0479083953846444
-0,0496298006541428
-0,0509879604541473
-0,0519851514953796
-0,0526376801489061
-0,0529753885509809
-0,0530403478075982
-0,0528847838978547
-0,0525683348163837
-0,0521547852314359
-0,0517084639555603
-0,0512905169581959
-0,0509552823857441
-0,0507469929974734
-0,050697015465381
-0,0508218061160072
-0,0511217208162185
-0,0515807656043938
-0,0521673177084221
-0,0528357875256573
-0,0535291348402776
-0,054182100701445
-0,0547249732703861
-0,0550876742177357
-0,0552039337477491
-0,0550153180017543
-0,054474882440384
-0,0535502479085552
-0,0522259307152971
-0,0505048017852156
-0,0484085998514214
-0,0459774765622717
-0,0432686040064845
-0,0403539244190499
-0,0373171649711299
-0,0342502753157542
-0,0312494703831221
-0,0284110748702671
-0,0258273688044681
-0,0235826259788979
-0,021749520109468
-0,0203860488605355
-0,0195330954135604
-0,0192127131629412
-0,019427183590827
-0,0201588624426851
-0,0213707967468626
-0,0230080664001209
-0,0249997799024164
-0,0272616348657659
-0,0296989401679539
-0,0322099877423935
-0,0346896573400189
-0,0370331363724885
-0,0391396382807495
-0,0409160059824887
-0,0422800912387034
-0,043163805884786
-0,043515746772089
-0,0433033032093839
-0,0425141642264524
-0,0411571538071899
-0,0392623361453275
-0,0368803506648423
-0,0340809585266598
-0,0309508087415196
-0,0275904625244624
-0,0241107482798345
-0,0206285551994162
-0,0172622089412117
-0,0141266058695249
-0,0113283102639725
-0,00896083903780297
-0,00710036834366249
-0,00580209388559371
-0,0050974603719107
-0,00499244477262264
-0,00546703334478894
-0,00647597530856172
-0,00795082924337817
-0,00980324533718083
-0,0119293519766869
-0,0142150437238078
-0,0165419045640683
-0,0187934503065629
-0,0208613414236922
-0,0226512057336224
-0,0240877211474513
-0,0251186427144891
-0,0257175142278639
-0,0258848798878453
-0,0256479016144503
-0,0250583869306624
-0,024189334363211
-0,0231302010217707
-0,0219811834309575
-0,02084687140773
-0,0198296804146522
-0,0190234865425373
-0,0185078780652014
-0,0183433984128053
-0,0185680896166094
-0,0191955569767336
-0,0202146708915982
-0,021590907801501
-0,0232692172502063
-0,0251781945978829
-0,0272352469860405
-0,0293523707811224
-0,0314421173347582
-0,0334233138770399
-0,0352261287044294
-0,0367961230560269
-0,0380970122799419
-0,0391119600048122
-0,0398433432640031
-0,040311044983532
-0,0405494436104138
-0,0406033689763336
-0,0405233708413787
-0,0403606958086691
-0,0401623855329888
-0,0399668930963133
-0,0398005665396815
-0,0396752729193426
-0,0395873392907143
-0,0395178768729116
-0,0394344405593651
-0,039293867431053
-0,0390460439945686
-0,0386382801820713
-0,0380199244126193
-0,0371468414703783
-0,035985394103313
-0,0345156178492103
-0,0327333518872847
-0,030651179856323
-0,0282981353102105
-0,0257182278813222
-0,02296793950504
-0,0201129174190816
-0,0172241458847487
-0,0143739076804005
-0,0116318478518975
-0,00906142698603965
-0,00671700282168993
-0,00464171272713262
-0,00286625228426504
-0,0014085644762033
-0,000274377320677011
0,00054153798834723
0,00105356583309748
0,00128310877950959
0,00125632916405852
0,00100197221638857
0,000549442647113139
-7,27377645928121E-05
-0,000838016789753745
-0,00172242292895023
-0,00270473324231961
-0,00376627313214535
-0,00489045415822911
-0,00606217196056035
-0,00726718693382102
-0,00849159651393942
-0,00972148235997138
-0,0109427820602445
-0,0121413976558392
-0,0133035168321394
-0,0144160913237225
-0,0154673943505776
-0,0164475670913492
-0,017349064265469
-0,0181669204568168
-0,0188987801628973
-0,0195446629712096
-0,0201064673223578
-0,0205872482934113
-0,0209903331515588
-0,021318360010899
-0,0215723375536744
-0,0217508262552483
-0,0218493338160307
-0,0218600005599057
-0,0217716263299981
-0,0215700614827879
-0,0212389538767361
-0,0207608142072973
-0,0201183362988148
-0,0192958890861935
-0,018281084352773
-0,0170663193209148
-0,015650195651592
-0,014038725289463
-0,0122462474321164
-0,0102959979371532
-0,00822029094108477
-0,0060602907839633
-0,003865369314186
-0,00169205861474689
0,000397378042605235
0,00233672333213396
0,00405788779120347
0,00549324403913822
0,00657815132092883
0,0072535980677876
0,00746887888127427
0,00718421051521534
0,00637318000775438
0,00502490853549603
0,00314580862601598
0,000760811989722969
-0,00208604777332842
-0,00533179757008079
-0,00889550701339405
-0,0126801304435573
-0,0165752058412987
-0,0204603585910605
-0,0242095058489232
-0,0276956057413527
-0,0307957489504386
-0,033396352678391
-0,0353981923677229
-0,0367209979959203
-0,037307351204332
-0,0371256475194059
-0,036171933496789
-0,034470489209701
-0,032073098193351
-0,0290570246765567
-0,0255217959588153
-0,0215849601706768
-0,0173770507803641
-0,0130360343386993
-0,00870154360131677
-0,00450920255413921
-0,000585332954895718
0,0029577043468152
0,00602533235145785
0,00854360759566255
0,0104610279260266
0,0117492980208964
0,0124031143355135
0,0124390819921801
0,0118939122220188
0,0108220683443866
0,009293030813899
0,00738833919830191
0,0051985442654984
0,0028201710020218
0,000352758351656868
-0,00210399118942031
-0,00445294474991268
-0,00660216308894732
-0,00846742663786529
-0,00997466545576318
-0,0110622747509908
-0,0116832697163029
-0,0118072023311362
-0,0114217337326573
-0,0105337341209193
-0,00916977274808268
-0,00737586700743222
-0,00521638394227346
-0,0027720295387679
-0,000136918714213487
0,00258521239101641
0,00528551636966817
0,00785505954146844
0,01019009269607
0,0121972531603652
0,0137983616432674
0,0149344823463553
0,0155689487284032
0,0156891189509197
0,0153067104835658
0,0144566660760945
0,0131946147172162
0,0115931014552532
0,0097368588181366
0,00771747053280157
0,00562782740922809
0,00355679027110371
0,00158445346365251
-0,000221654004454232
-0,00180917949794549
-0,00314222925505666
-0,0042013034937398
-0,00498198788743552
-0,00549261661602617
-0,00575121143620118
-0,00578205927111015
-0,005612311712127
-0,00526897126350153
-0,00477657284380087
-0,00415578058928899
-0,00342300839577151
-0,00259104943881396
-0,00167057807720556
-0,000672280114459267
0,000390713878251175
0,00150046333806739
0,00263229650227406
0,00375367128582653
0,00482407882553904
0,00579614034290097
0,00661791639955625
0,00723630772743573
0,00760129316964567
0,00767063716141967
0,00741461918145296
0,00682030020322081
0,00589485178205905
0,00466753267919658
0,00319000162082206
0,00153479412232275
-0,000208046285804355
-0,00193602173595174
-0,00354059584259012
-0,00491451085764156
-0,00595944505296018
-0,0065933969453593
-0,00675718458583978
-0,0064195044123438
-0,00558010077578114
-0,00427074506521101
-0,00255389938893632
-0,000519128346736717
0,00172249325670769
0,00404556523423712
0,00631859924093391
0,00841268580343928
0,0102099390427567
0,0116110923179421
0,0125416951558697
0,0129564830894792
0,0128416459515967
0,0122148926531763
0,0111233861229671
0,00963978567863202
0,00785677197117304
0,00588053089299741
0,00382373021140072
0,00179853311078056
-8,98424652291497E-05
-0,00174858556579063
-0,00310144965508358
-0,00409140886378058
-0,00468175337799823
-0,00485569756308663
-0,00461469239258467
-0,00397572695580349
-0,00296796552863188
-0,00162909335102184
-1,73566445073684E-06
0,00186972638446414
0,00394168701150598
0,00617302496246846
0,00852591813448824
0,0109657888730703
0,0134604948579501
0,0159789545629998
0,0184894488825851
0,0209578679740546
0,0233461733362181
0,0256113206026708
0,027704841558262
0,029573219244145
0,0311591137516799
0,0324034150700923
0,0332480199974717
0,0336391590428673
0,0335310419849634
0,0328895516504181
0,0316956973461022
0,0299485434869011
0,0276673548664549
0,0248927458093472
0,0216866827870105
0,0181312645750533
0,0143262854694795
0,0103856698178505
0,00643294445181485
0,00259598409346445
-0,000998681293494668
-0,00423167277681881
-0,00699634348262031
-0,00920380332637329
-0,0107870861889793
-0,0117042082773523
-0,0119399334482277
-0,0115061409432629
-0,0104407779935324
-0,00880546817946682
-0,00668193023730476
-0,00416743535977062
-0,00136958887586953
0,0015992395465816
0,00462749695892039
0,00760970638625422
0,0104511009077013
0,0130713790929148
0,0154073946219067
0,0174146705566835
0,019067711931168
0,0203591728647369
0,0212980102653232
0,0219068199131643
0,0222185979034746
0,0222731980090492
0,0221137620225321
0,0217833857286986
0,0213222496381569
0,0207653941797531
0,0201412580865888
0,0194710313182862
0,0187688055029964
0,0180424409203926
0,0172950142960984
0,0165266701224605
0,0157366726142677
0,0149254472467506
0,0140964101234866
0,0132574088951828
0,0124216380569246
0,011607940690563
0,0108404639039207
0,0101476917980428
0,00956093327684858
0,0091123881871306
0,00883295065898526
0,00874993048129422
0,0088848803671174
0,00925170872096561
0,00985523483539469
0,0106903083102758
0,0117415698235098
0,0129838798187971
0,0143833893504889
0,0158991774226027
0,017485335725745
0,0190933481963374
0,0206745919740418
0,0221827797731611
0,023576171862743
0,0248194079846306
0,025884843675301
0,026753318568611
0,0274143325470532
0,0278656548257007
0,0281124367955816
0,0281659377088748
0,028041999632544
0,0277594221904592
0,0273383873258836
0,0267990698920822
0,0261605429657059
0,0254400502176748
0,0246526753023408
0,0238113944459743
0,0229274577937893
0,0220110118271118
0,0210718527551754
0,0201201914904724
0,0191673155059947
0,0182260508563845
0,0173109567260197
0,0164382215967495
0,0156252700782059
0,0148901278011279
0,0142506238022705
0,0137235314358503
0,013323757129361
0,0130636798652247
0,0129527234970571
0,0129972110566626
0,0132005088462382
0,0135634233332629
0,0140847713546836
0,0147620096275347
0,0155917881534819
0,0165702876159075
0,0176932153031245
0,0189553673379428
0,0203497145961587
0,0218660311379823
0,0234891509243806
0,0251970035942155
0,0269586353172846
0,0287324588435742
0,0304649918550149
0,0320903306425096
0,0335305657339885
0,0346972790850583
0,0354941734980463
0,0358207813899057
0,0355770913187785
0,034668827353848
0,0330130292371783
0,0305435201624755
0,0272158217307758
0,0230110872480317
0,0179386764387857
0,0120370844984562
0,00537306002875619
-0,00196110973815058
-0,00985201400875268
-0,0181709508402614
-0,0267807608038346
-0,0355431429057946
-0,044325871739594
-0,0530093209059917
-0,0614917350305559
-0,0696927798343718
-0,0775550307276819
-0,0850432252613984
-0,0921412901755301
-0,0988473442289066
-0,105167057192337
-0,111105897674339
-0,116660914178233
-0,121812754581237
-0,126518632927078
-0,130706897652163
-0,134273745742262
-0,137082471116586
-0,138965445081344
-0,139728817252034
-0,139159713875628
-0,137035514190215
-0,133134620337283
-0,127248015803716
-0,1191908411787
-0,108813209430993
-0,0960095362913642
-0,0807257701549898
-0,0629640611555867
-0,0427845979971023
-0,0203045484028442
0,00430575198631029
0,0308290234096145
0,0590091756925557
0,0885607278131088
0,119178819557978
0,15054910793421
0,18235688353551
0,214294836148363
0,246069035811974
0,277402863362971
0,308038808883607
0,337738242111547
0,366279430574813
0,393454225272752
0,419063938914569
0,442915000246097
0,464814975968234
0,484569509525971
0,501980638038959
0,516846822874582
0,528964876796025
0,538133804063489
0,544160403046441
0,546866327135624
0,546096171027128
0,541726055339112
0,53367212960569
0,521898404944776
0,506423362560651
0,487324858582848
0,464742952575112
0,438880416972958
0,410000827073287
0,378424274813255
0,34452088390293
0,308702419707313
0,271412377619544
0,233114994076648
0,194283653271457
0,155389161150323
0,116888330082238
0,0792132681165835
0,0427617027123839
0,00788859733994247
-0,0251007528368342
-0,0559560271802053
-0,0844855267429929
-0,110558148132787
-0,13410370497719
-0,155111643041949
-0,173628213284907
-0,18975218238673
-0,203629176749198
-0,215444777360498
-0,225416511941623
-0,233784928451481
-0,240803979560664
-0,246730998262636
-0,251816595815004
-0,256294858743696
-0,260374254993115
-0,264229673802676
-0,267996013723974
-0,271763694157835
-0,27557639605532
-0,279431237884699
-0,283281467584507
-0,287041606806127
-0,290594829720196
-0,293802206180114
-0,296513300333671
-0,298577502834905
-0,299855398529419
-0,300229440366097
-0,299613219726751
-0,297958694853389
-0,295260859935364
-0,291559500800757
-0,286937878446014
-0,281518395062442
-0,275455513109124
-0,268926399775474
-0,262119940937258
-0,255224896362121
-0,248418040516713
-0,241853143993446
-0,235651597208731
-0,229895363526359
-0,224622781147602
-0,219827524136655
-0,215460798418443
-0,211436606338679
-0,20763968208566
-0,203935497967765
-0,200181584135861
-0,196239304356339
-0,191985195982618
-0,187321016320088
-0,182181737738338
-0,176540892569221
-0,17041287375518
-0,163852032488051
-0,156948661328386
-0,149822191212871
-0,142612144571112
-0,135467557833003
-0,128535701557777
-0,121950976487043
-0,11582484527017
-0,110237574218261
-0,1052324142514
-0,100812656956972
-0,0969417758673297
-0,0935466227091715
-0,0905234124576822
-0,0877460180891562
-0,0850759224815465
-0,0823730541905978
-0,0795066746852555
-0,0763654909577875
-0,0728662377639256
-0,0689601016220272
-0,0646365330646864
-0,0599241999456129
-0,054889055979311
-0,0496297174188484
-0,0442705396383194
-0,0389529492386525
-0,0338257040774472
-0,0290348154420215
-0,0247138701283123
-0,0209754370047412
-0,0179041387561208
-0,0155518248877056
-0,0139351096435501
-0,013035352951703
-0,0128009790467905
-0,0131518604790456
-0,0139853572111315
-0,015183500991262
-0,0166207600758712
-0,0181718106516211
-0,0197187770422227
-0,0211574774989542
-0,0224023176589891
-0,023389599199752
-0,0240791453843544
-0,0244542766460782
-0,0245202877146658
-0,0243016744708602
-0,0238384276352325
-0,0231817482855058
-0,0223895466967339
-0,0215220634432837
-0,0206379047564942
-0,0197907190979708
-0,0190266660927219
-0,0183827498851367
-0,0178860136515856
-0,0175535263762145
-0,0173930414855278
-0,0174041721558601
-0,0175799108623744
-0,0179083200940563
-0,0183742348018107
-0,0189608417127062
-0,0196510322674853
-0,0204284606442756
-0,0212782725102391
-0,0221875008751156
-0,0231451506684869
-0,0241420123911091
-0,0251702572951201
-0,0262228727070835
-0,0272929975412441
-0,0283732162499818
-0,0294548658797657
-0,030527406734994
-0,0315779031449615
-0,0325906571618438
-0,0335470343655498
-0,0344255165287333
-0,035202009692517
-0,0358504271579653
-0,0363435542203786
-0,0366541847692692
-0,0367564994492622
-0,0366276318916084
-0,0362493453116345
-0,0356097188115422
-0,0347047237534061
-0,0335395583443293
-0,032129605684232
-0,0305008889176075
-0,0286899178945868
-0,0267428547769574
-0,0247139700099585
-0,0226634123394387
-0,020654373343747
-0,0187497835687171
-0,0170087287137387
-0,0154828151894596
-0,0142127401705648
-0,0132253282618573
-0,01253128290698
-0,0121238651468191
-0,0119786567750744
-0,0120544925919338
-0,0122955624708768
-0,0126345946407786
-0,0129969442568284
-0,0133053333928173
-0,0134849270888252
-0,0134683908931472
-0,0132005627443298
-0,0126423880962106
-0,0117738116908689
-0,0105953895861623
-0,00912847598129915
-0,00741394414902763
-0,00550951116880879
-0,00348584319796038
-0,00142171295792771
0,00060144405239688
0,0025051797553868
0,00421947764945424
0,00568759334853491
0,00686994033187619
0,00774674399163065
0,00831928319069485
0,00860964868576433
0,00865906281359169
0,00852491532306145
0,00827676699325358
0,00799164778367056
0,00774902357146504
0,00762582135995701
0,00769188610651952
0,00800619484923105
0,00861407994470816
0,00954561968784196
0,0108152496376285
0,0124225409725355
0,014353992499612
0,016585599341191
0,0190859010547009
0,0218191802466528
0,0247484822061312
0,0278381566089781
0,0310556809472128
0,0343726065711116
0,0377645645522691
0,0412103710487178
0,0446903709132628
0,048184244616333
0,0516685688817831
0,0551144592683661
0,0584856292407946
0,061737173728172
0,0648153274566278
0,0676583639122471
0,0701986966407894
0,0723661295395271
0,0740920869461823
0,0753145479501656
0,0759833222945271
0,0760652457740109
0,075548847395388
0,0744480521518491
0,0728045324593059
0,0706884052837871
0,0681970849956513
0,0654522356357125
0,0625949103458514
0,0597791088317959
0,0571641143540609
0,0549060791195397
0,0531494019238448
0,0520184777564922
0,0516103920856726
0,0519890822648993
0,0531813979225025
0,0551753674998542
0,057920828183408
0,0613324123507615
0,0652947174999166
0,0696693309530376
0,0743032472087541
0,0790381148297102
0,0837196889605563
0,0882068497333906
0,0923795772771329
0,0961453486788802
0,0994435355761043
0,102247524692727
0,104564446933359
0,10643257149692
0,107916587237055
0,109101141987605
0,110083130928856
0,110963308636279
0,111837840345305
0,112790403565243
0,113885402239661
0,115162766305495
0,116634686788472
0,118284490037989
0,120067695495835
0,121915141548114
0,123737915411467
0,125433696593392
0,126894028294587
0,12801197383037
0,128689599329357
0,128844750058964
0,128416652917011
0,127369976155734
0,12569710103853
0,123418498808039
0,120581249041786
0,11725587100518
0,113531757629856
0,109511593428931
0,105305196548941
0,101023247505969
0,0967713523450676
0,0926448383773502
0,0887246015741904
0,0850742237037592
0,0817384636657516
0,0787431113377036
0,0760960836715698
0,0737895509307216
0,0718028132591132
0,0701056092975258
0,0686615315220377
0,0674312466817183
0,0663752705134649
0,0654561177136579
0,0646397329063252
0,0638961969640947
0,0631997861401575
0,0625285304609294
0,06186346567261
0,0611877949692785
0,0604861708396875
0,0597442746773639
0,0589488163063217
0,0580880037806718
0,0571524541403878
0,0561364376469365
0,0550392808740777
0,0538667063454113
0,0526318647876554
0,0513558243726425
0,0500673202514049
0,0488016345685281
0,0475985660450462
0,0464995505457187
0,0455440992373437
0,0447658175942292
0,0441883454880012
0,0438216062880212
0,0436587641530071
0,0436742598817653
0,0438232270277066
0,0440424858387134
0,0442531811694985
0,0443649831855948
0,044281620010251
0,0439073738851326
0,0431540609008324
0,0419479409216105
0,0402359778671668
0,0379908957001221
0,035214552247737
0,031939276311498
0,0282269737657608
0,0241659920493903
0,0198659234818529
0,0154507089030042
0,0110505573969777
0,0067933105375462
0,00279593942311371
-0,000843136826027036
-0,00405028266258029
-0,00678091583435408
-0,00902146632684984
-0,0107888711633852
-0,0121276624408114
-0,0131049130744725
-0,0138034894426236
-0,0143142056980664
-0,0147275676489287
-0,0151258262606639
-0,0155760290369122
-0,0161246646717109
-0,0167943509245209
-0,0175828309004881
-0,0184643356840522
-0,019393160353038
-0,0203091048499214
-0,0211442684772047
-0,0218305712850501
-0,022307317208123
-0,0225281170770775
-0,0224665534992663
-0,0221200874683781
-0,0215118670568272
-0,0206902865712444
-0,0197263428445124
-0,0187090259876195
-0,0177391481379626
-0,0169221412830672
-0,0163604337212736
-0,0161460384694836
-0,0163539553077758
-0,0170369056093058
-0,0182217944293854
-0,0199081399050668
-0,0220685403854195
-0,0246510803013738
-0,0275834213342413
-0,0307781988147011
-0,0341392542120621
-0,037568189020857
-0,0409707250896891
-0,0442623990316104
-0,0473731977483436
-0,0502508491678121
-0,0528626060722265
-0,0551954895246145
-0,0572550804503592
-0,0590630533318137
-0,0606537269543616
-0,0620699587866492
-0,0633587300618279
-0,0645667592435233
-0,0657364462124242
-0,066902394257174
-0,0680886890609113
-0,0693070411090731
-0,0705558275617157
-0,0718200077935202
-0,0730718379056511
-0,0742722759040353
-0,0753729511976212
-0,0763185678850909
-0,0770496178105388
-0,0775052923877577
-0,0776264972805632
-0,077358887055936
-0,0766558447219834
-0,0754813318109625
-0,073812528186924
-0,0716421685093376
-0,0689804671646615
-0,0658565094655809
-0,0623189784601866
-0,0584360881485772
-0,0542946088107173
-0,0499979007487715
-0,0456629194568627
-0,0414162164389471
-0,0373890319811917
-0,0337116536485818
-0,030507290316667
-0,0278857785734144
-0,0259374888079595
-0,0247278255279681
-0,0242927152805289
-0,0246354431304987
-0,0257251347658077
-0,0274970886800611
-0,029855047056228
-0,0326753629856033
-0,0358128853929153
-0,0391082524774404
-0,0423961706931106
-0,0455141694716539
-0,0483112703877675
-0,0506559989423452
-0,0524432000177542
-0,0535991931301539
-0,054084916063833
-0,0538968472070871
-0,0530656571349166
-0,051652706088919
-0,0497446626381869
-0,0474466569868867
-0,0448744886824681
-0,0421464739454866
-0,0393755369067122
-0,0366621200226184
-0,0340884141670862
-0,0317142946493012
-0,0295752053016268
-0,027682071024923
-0,0260231534850267
-0,0245676090459729
-0,0232703756381922
-0,0220779171200497
-0,0209342978143125
-0,0197870505297628
-0,0185923386196728
-0,0173189924828851
-0,0159511155994045
-0,014489093902618
-0,0129489921701189
-0,0113604684137721
-0,00976346865381499
-0,00820406822494736
-0,00672989285153184
-0,00538557762482569
-0,00420870316150248
-0,00322658824008864
-0,00245422349713636
-0,00189351098780136
-0,00153384147108083
-0,00135390820496786
-0,0013245357363834
-0,00141220613329392
-0,00158290239298176
-0,00180586502931572
-0,00205687491047755
-0,00232073105985362
-0,0025926803066091
-0,00287866721253219
-0,00319439611789742
-0,00356331992133532
-0,00401377992041777
-0,00457560667595983
-0,00527654492170054
-0,00613888082044495
-0,00717662606109194
-0,00839355301267388
-0,00978228478092713
-0,0113245329194862
-0,0129924552320292
-0,0147509889685178
-0,0165609128332065
-0,0183823150795975
-0,0201781024166441
-0,0219171798771188
-0,0235769657313602
-0,025144974481569
-0,026619297916585
-0,0280079291641
-0,0293269958606604
-0,0305980834581929
-0,031844926427489
-0,0330898136565294
-0,0343500874818054
-0,0356351099319108
-0,0369440253078564
-0,0382645694792684
-0,0395730711199707
-0,0408356690942939
-0,0420106455805733
-0,0430516589538482
-0,0439115657296801
-0,0445464567640106
-0,0449195061085863
-0,0450042444219129
-0,0447869215930485
-0,044267710249777
-0,0434606146744158
-0,0423920772927379
-0,0410984047669955
-0,0396222549748811
-0,0380085229413497
-0,0363000284101102
-0,0345334335974314
-0,0327358039365542
-0,0309221684555745
-0,0290943449339182
-0,0272411766475116
-0,0253401934184791
-0,023360572456876
-0,0212671470402024
-0,0190251054647968
-0,0166049489282779
-0,0139872421152154
-0,0111666977119535
-0,00815518545720456
-0,00498334337644723
-0,00170058588780777
0,00162655980664177
0,00491771330075375
0,00808328149996372
0,0110301429519869
0,013667944542881
0,0159155205783711
0,0177069264459004
0,0189966032467777
0,0197632537570011
0,0200121081955807
0,0197753821646298
0,0191108683443654
0,0180987465450054
0,0168368319448859
0,0154345979872219
0,0140063995240709
0,0126643768077972
0,0115115382290487
0,0106354988340367
0,0101032951919655
0,0099576105494285
0,010214634992833
0,0108636627331417
0,0118684025531427
0,0131698577138957
0,0146905271943821
0,0163395983785424
0,0180187474900239
0,0196281410180857
0,0210722393108764
0,0222650402184973
0,0231344616791733
0,0236256413601576
0,023703021554402
0,0233511807915877
0,0225744624597223
0,0213955284363582
0,0198530269356783
0,0179986048441285
0,0158935141079037
0,0136050595833104
0,0112031143951801
0,00875689205211088
0,00633211723336155
0,00398868485533352
0,00177884527445139
-0,000254092588509922
-0,00207658471938815
-0,0036652703604516
-0,00500706354211953
-0,00609899285284677
-0,00694784993841298
-0,00756968464947468
-0,00798915830903934
-0,00823874084403075
-0,00835771697462978
-0,00839095509736602
-0,00838739268464146
-0,00839820522742453
-0,0084746516085453
-0,00866562528748767
-0,00901498420033682
-0,00955877807936937
-0,0103225343950364
-0,0113187976411545
-0,0125451359096012
-0,0139828294002746
-0,015596435034396
-0,0173343789791147
-0,0191306661995334
-0,0209077168537245
-0,0225802492246631
-0,0240600352859045
-0,0252612662878691
-0,0261061905297874
-0,0265306317983244
-0,0264889714816585
-0,0259581847106703
-0,0249405629595031
-0,0234648313030098
-0,0215854738052088
-0,0193802082562697
-0,0169456922241532
-0,0143916849609416
-0,0118340221935439
-0,00938687152050659
-0,00715481468140335
-0,0052253412399539
-0,00366233124334361
-0,00250105085901772
-0,00174508742012198
-0,0013655151806168
-0,00130242021580188
-0,00146873482343202
-0,00175615265309417
-0,00204273025102566
-0,00220164266946442
-0,00211046210125886
-0,00166027805249818
-0,000763980275069251
0,000636917825735954
0,00256743123569707
0,00501659867729326
0,00793751099322951
0,0112498685475319
0,0148448699400055
0,0185920566098108
0,0223475906958372
0,0259633388808194
0,0292960813621136
0,0322161666963367
0,0346149895808045
0,0364107744909955
0,0375522941657545
0,0380203255195749
0,0378268316610394
0,037012041420306
0,0356397615962651
0,0337913883436045
0,0315591720050648
0,0290393274217459
0,0263255670497441
0,0235035693786932
0,0206467870197313
0,0178138579925498
0,015047723589522
0,0123763917761482
0,0098151315879359
0,0073697554873751
0,00504055471328798
0,00282640534137704
0,000728563888031537
-0,00124628000856286
-0,0030840353280289
-0,00476254344453075
-0,00625228722954204
-0,00751839839928367
-0,0085237445538071
-0,00923275887899806
-0,00961559179389064
-0,00965212338106365
-0,00933538238510001
-0,0086739714295707
-0,00769319373905957
-0,0064347046899655
-0,00495465935763657
-0,00332048009425344
-0,00160651074535212
0,000111058160248841
0,0017595281894759
0,00327479559802321
0,00460573228371349
0,00571742333565566
0,00659294641398634
0,00723351833404032
0,00765699391881813
0,00789486562870436
0,00798806329860031
0,00798197611033232
0,0079212009108946
0,00784455323464791
0,00778085584403857
0,00774594556107438
0,00774121917974068
0,00775388466775363
0,00775890963256303
0,00772248240007206
0,00760663976760662
0,0073745861286202
0,00699614487802008
0,00645275414516309
0,00574144903664916
0,0048773599071309
0,00389439327169912
0,00284393621322697
0,00179162005838444
0,000812375831757257
-1,58068306551803E-05
-0,000618862035220165
-0,000933722826411368
-0,00091480828448871
-0,000539274163770132
0,00018952537850009
0,00124076612049111
0,00255728006040301
0,0040590698804022
0,00564898006007579
0,00722008806882028
0,00866421033198817
0,00988080154640658
0,0107854739673784
0,0113173811158696
0,0114447970789142
0,0111683708955606
0,0105217323592162
0,0095693532955506
0,00840180648356685
0,00712879137371005
0,00587049114144736
0,00474797189324527
0,00387341897524583
0,0033410200902897
0,00321924934412129
0,00354518586491263
0,00432132652353437
0,00551514042125807
0,0070613823579282
0,00886695386715399
0,0108178935799116
0,0127879112507659
0,0146477654578707
0,0162747324372734
0,0175614256561929
0,0184232996812343
0,0188042993190181
0,0186802830987407
0,0180600429136401
0,0169839414127169
0,0155203779284988
0,0137604563920371
0,0118113519040323
0,00978894756969755
0,00781033579913462
0,00598674936086875
0,00441741250024871
0,00318469076607334
0,00235078203564438
0,00195604436420377
0,00201891271501434
0,00253722917598722
0,00349071055509756
0,00484421063474014
0,00655140556126774
0,00855853968403995
0,010807911780564
0,0132408511621389
0,0158000204948586
0,0184309769915778
0,0210830155060377
0,0237093964920383
0,0262671211964577
0,0287164507371333
0,0310203727691449
0,033144200189391
0,0350554444711314
0,0367240478193532
0,0381229909878186
0,0392292256732679
0,0400248200777292
0,040498160659296
0,0406450276750484
0,0404693599473916
0,0399835458812054
0,0392081210098336
0,0381708128241387
0,0369049449441959
0,035447287267414
0,0338355084876533
0,032105444616426
0,0302884352614336
0,0284089935845046
0,0264830635668454
0,0245170794124683
0,022507979246883
0,0204442436716882
0,0183079361524492
0,0160776249551979
0,0137319743050995
0,0112537144063738
0,00863364370497841
0,00587428846242001
0,00299284821293685
2,30922465376788E-05
-0,00298405968011053
-0,00596144400146568
-0,00882810345588635
-0,0114932097371073
-0,0138612594009928
-0,0158382246617321
-0,0173382412209947
-0,0182903444927637
-0,0186447306249629
-0,0183780241228664
-0,0174970810198218
-0,0160409435551757
-0,0140806840091385
-0,0117170235201598
-0,00907577574971426
-0,00630133281386838
-0,00354856886995596
-0,000973672253450544
0,00127548145599798
0,00306874491365235
0,00430222387552727
0,00490527566965174
0,00484543921163519
0,00413089291951525
0,00281021045039828
0,000969380276403009
-0,0012737411365946
-0,00377717735948295
-0,00638424470500503
-0,00893396009388047
-0,0112716914623627
-0,0132592726489621
-0,0147838401016595
-0,0157647432998368
-0,0161580277966425
-0,0159581781312062
-0,015197022675581
-0,0139399264629721
-0,0122796127936416
-0,0103281420116338
-0,00820772041027781
-0,00604110132320367
-0,00394236621755678
-0,00200883352518505
-0,000314740132781965
0,00109281650909684
0,00219538547272462
0,00300205004421951
0,00354585365139921
0,00387813284456139
0,00406130381618623
0,00416077757289367
0,00423674719863101
0,00433659280374585
0,00448858575008723
0,00469744956508223
0,00494216199770741
0,00517617675932677
0,00533002342742818
0,00531602987979696
0,00503472298468337
0,00438231729499142
0,0032586113903301
0,00157458535694785
-0,000740967220837263
-0,0037363374774396
-0,0074337403217772
-0,0118283134079819
-0,0168892843241056
-0,0225631044144951
-0,0287781586821719
-0,035450511324937
-0,0424900501208513
-0,0498063596050005
-0,0573136862907459
-0,0649344563457752
-0,0726009582273577
-0,0802549956574726
-0,0878455317049931
-0,0953245620846259
-0,102641653991708
-0,10973774636353
-0,116538912180378
-0,122950822050057
-0,128854615607984
-0,134104784593041
-0,138529506775647
-0,141933657111404
-0,144104480246042
-0,144819658560176
-0,143857275304886
-0,141006975082042
-0,136081483122246
-0,128927574917641
-0,119435597125675
-0,107546730592075
-0,0932573510290069
-0,0766200696053607
-0,0577413059799603
-0,0367755373159606
-0,0139166534300776
0,0106128948918609
0,0365742635064184
0,0637246758484836
0,0918291083815405
0,120670177209903
0,1500553380298
0,179820727816824
0,209831257055049
0,23997688358385
0,2701653369232
0,300311886999531
0,330327035828698
0,360103229991669
0,389501825740584
0,418341574031589
0,446389824356103
0,473357477028418
0,498898455002172
0,522614137231101
0,544062820991183
0,562773889449974
0,578265983851883
0,590068147038023
0,597742643484617
0,600907992165462
0,599260686673872
0,592594128220506
0,58081345848549
0,563945239311208
0,542141265471609
0,515676189625462
0,484939055138783
0,450419241018672
0,412687692693355
0,372374614995525
0,330145017028651
0,286673607481233
0,242620536631218
0,198609369919777
0,155208468398523
0,112916662125384
0,0721537583322307
0,0332560555787299
-0,00352333161261408
-0,0380098667429487
-0,0700995076566571
-0,0997481442385769
-0,126959659493568
-0,151773721694585
-0,174254327238929
-0,19447994368269
-0,212535868542405
-0,228509145393031
-0,242486090990224
-0,254552212507968
-0,264794057477353
-0,273302361412648
-0,280175754185554
-0,285524263454484
-0,289471911567845
-0,292157833351903
-0,293735531286791
-0,294370111728126
-0,294233587633619
-0,293498565299836
-0,292330831718724
-0,290881505642178
-0,289279494916244
-0,287625007329629
-0,285984791616072
-0,284389646155182
-0,282834538592923
-0,281281448594977
-0,279664800149372
-0,277899112449736
-0,275888291694872
-0,273535829426262
-0,270755080772331
-0,26747877658869
-0,26366697863048
-0,259312811296114
-0,254445485696402
-0,24913035523125
-0,243465986403146
-0,237578472645682
-0,231613441252557
-0,225726385193235
-0,220072077871092
-0,214793890119714
-0,210013821352431
-0,205823983328483
-0,202280143745177
-0,199397760834155
-0,197150735858825
-0,195472896190293
-0,194262015903786
-0,193386000512085
-0,19269072137482
-0,1920088932614
-0,19116935044121
-0,190006092425584
-0,188366535226554
-0,186118508833232
-0,183155674536982
-0,179401183070165
-0,174809542158044
-0,169366796854347
-0,163089236947968
-0,156020924828254
-0,148230380147676
-0,139806763939063
-0,130855877662733
-0,121496238254833
-0,111855417171483
-0,102066749586615
-0,0922664393741659
-0,0825910156303278
-0,0731750447689493
-0,0641489737771939
-0,0556369772272354
-0,0477547022934346
-0,0406068486663467
-0,0342845778884923
-0,0288628115723501
-0,0243975417329911
-0,0209233306974433
-0,0184512153750947
-0,0169672454913031
-0,016431874499611
-0,0167803847697115
-0,0179244676130705
-0,0197549986026511
-0,0221459564874911
-0,0249593382112348
-0,0280508322490785
-0,0312759364785882
-0,0344961529152579
-0,0375848657337991
-0,0404325145864575
-0,04295071297717
-0,045075029180007
-0,0467662399405004
-0,0480099777687259
-0,0488148120512638
-0,0492089226702439
-0,0492356324190445
-0,0489481521909887
-0,0484039532008035
-0,047659208209681
-0,0467637363095655
-0,04575684372736
-0,044664379585993
-0,0434972265065523
-0,0422513292850173
-0,0409092400391579
-0,0394430351721161
-0,0378183480925939
-0,0359991706645039
-0,0339530129968794
-0,0316559802992785
-0,0290973294237534
-0,0262831059094682
-0,0232385317299651
-0,0200089089876075
-0,0166589180894476
-0,0132703117443982
-0,00993812911652698
-0,00676566840508769
-0,00385855260191011
-0,0013182951556936
0,000764185339804196
0,00231464243958734
0,0032807352338474
0,00363603620338802
0,00338251327148642
0,00255128837778091
0,00120159144687829
-0,000582048986641125
-0,00269421743173345
-0,00501435522207624
-0,00741347524138511
-0,00976141947430955
-0,0119341928434233
-0,0138208994101739
-0,0153298311322148
-0,016393313462121
-0,0169709926230116
-0,0170513512531908
-0,0166513556914697
-0,0158142619401941
-0,0146057302211878
-0,0131085119412945
-0,0114160701664134
-0,00962556870843136
-0,00783071037527888
-0,00611491831161183
-0,00454533421343893
-0,00316805427686071
-0,00200494102151291
-0,00105224171529011
-0,000281118974651538
0,000359935380743943
0,000940966654634549
0,0015449921425117
0,00226139901217137
0,00317877883498585
0,00437771820447228
0,00592407322388637
0,00786322508253223
0,0102157460110248
0,012974803988555
0,0161055078182736
0,0195462508495362
0,0232119626404191
0,0269990347305508
0,0307915608751263
0,0344684337204959
0,0379107772125676
0,0410091723302767
0,0436701551380514
0,0458215290525688
0,0474161326036517
0,0484338315192913
0,0488816489590122
0,0487920977250624
0,0482199203874068
0,0472375651285645
0,0459298161802555
0,0443880501212215
0,0427045986842193
0,0409676646807109
0,039257163810118
0,0376417588689585
0,0361772246805886
0,0349061445382793
0,033858805620124
0,0330550449028006
0,0325067100585214
0,0322203503992134
0,0321997460879494
0,0324479202932928
0,0329683549749859
0,0337652387394943
0,0348427034106624
0,0362031410640398
0,0378448206478695
0,0397591288794859
0,0419278316251999
0,0443207805197444
0,0468944704026689
0,0495917864042837
0,0523431702804837
0,0550692936597824
0,0576851646970052
0,0601054303130215
0,0622504857501631
0,0640528829283434
0,0654634529815641
0,0664565364868606
0,0670337523074186
0,0672258320228921
0,0670921951341474
0,0667181286660408
0,0662096471630817
0,0656863260021891
0,0652726019542428
0,0650882001931036
0,0652384594228035
0,0658053737487716
0,0668401445042999
0,0683579370659185
0,0703353733180178
0,0727110726666098
0,0753893015881643
0,0782465255620052
0,0811404016048364
0,0839205278066123
0,0864400990149106
0,0885675212915109
0,0901970220167988
0,0912573604169133
0,0917178901621028
0,0915914396697448
0,090933738730537
0,0898394093890339
0,088434829325439
0,086868441740532
0,0852993033608638
0,0838848123050289
0,0827686267491133
0,0820697674086642
0,0818737933570932
0,0822267608151213
0,083132434258261
0,0845529398057707
0,0864127570929701
0,0886056635392753
0,0910039987986079
0,0934694284875663
0,0958642710319434
0,0980624189713898
0,0999589382052723
0,101477559759048
0,102575476132264
0,103245099796922
0,103512712622791
0,103434207617069
0,103088374333278
0,102568384965287
0,101972282136091
0,101393340090868
0,100911163517781
0,100584304626622
0,100445028220358
0,10049665088587
0,100713643045216
0,101044433046519
0,101416612948024
0,101744037044466
0,101935144268841
0,101901737494843
0,101567423863459
0,100874961811323
0,0997918674856206
0,098313795132767
0,0964654076968919
0,0942986770159558
0,0918887778874938
0,0893279474452795
0,0867178531983254
0,084161135625845
0,0817528547937681
0,0795725707527882
0,0776777256203673
0,0760988776685018
0,0748371754371367
0,0738642673808814
0,0731246366230903
0,0725401485435543
0,0720164179620322
0,0714504572896286
0,0707389686141014
0,0697865985013669
0,0685134869898454
0,0668615096604396
0,0647987272390799
0,0623217105224779
0,059455586280761
0,0562518372016352
0,0527840704561107
0,049142130461189
0,0454250591585134
0,0417334918860097
0,0381621125444946
0,0347927762166295
0,0316888427262003
0,0288911568650201
0,0264159694348231
0,0242549297966904
0,0223771087121389
0,0207328438996795
0,0192590532186672
0,0178855434582564
0,016541765469006
0,0151634347257299
0,0136984525790662
0,0121116258352736
0,0103877856228287
0,00853304227014055
0,00657407006684697
0,00455548157452862
0,00253551220224981
0,000580379024569568
-0,00124220829029384
-0,00286983136675387
-0,00425185842483255
-0,00535508483935151
-0,00616801645152448
-0,00670339839462924
-0,0069987308553873
-0,00711467441023152
-0,00713141854806295
-0,00714325416803538
-0,00725174079144317
-0,00755797988503866
-0,00815458717967156
-0,00911799239951604
-0,0105016811722841
-0,0123309317429301
-0,0145994929653327
-0,0172685078761065
-0,0202678198482948
-0,0234996187225536
-0,0268442063398743
-0,0301674983006538
-0,0333297441976451
-0,036194852410334
-0,0386396552968172
-0,0405624501046213
-0,0418902002062635
-0,0425838764846427
-0,0426415524991235
-0,0420990291741855
-0,0410279427470896
-0,0395314900948855
-0,0377380747305219
-0,0357933221472112
-0,0338510241767893
-0,0320636407720983
-0,03057300961561
-0,0295018883384669
-0,028946883690258
-0,0289732128800356
-0,029611603515372
-0,0308574811118637
-0,0326724292972888
-0,0349877499253717
-0,0377098100064492
-0,0407267495146453
-0,0439160462910944
-0,0471523959497607
-0,0503153672841202
-0,0532963352806146
-0,0560042696557526
-0,0583700595423361
-0,0603491754754707
-0,0619225980870703
-0,0630960686812156
-0,0638978306426543
-0,0643751243271958
-0,0645897657089829
-0,0646131770276416
-0,0645212450514891
-0,0643893609957282
-0,0642879495178906
-0,0642787283506314
-0,0644118620020312
-0,0647240901428576
-0,0652378311830073
-0,0659611907444759
-0,0668887484854913
-0,0680029585310659
-0,0692759801075789
-0,0706717554123592
-0,0721481689493602
-0,0736591527432143
-0,0751566402321475
-0,0765923129263385
-0,077919122986888
-0,0790926072058122
-0,0800720300500285
-0,0808214035142276
-0,081310429107268
-0,0815153936012973
-0,0814200277985277
-0,0810163101944515
-0,0803051693782106
-0,0792970147368151
-0,0780120085939233
-0,0764799875074218
-0,0747399480113831
-0,072839033072587
-0,0708309887851995
-0,068774103687584
-0,0667286916378683
-0,0647542285826863
-0,0629062986016794
-0,061233540211969
-0,0597748056224081
-0,0585567502252804
-0,0575920552898562
-0,056878453652177
-0,0563986779603007
-0,0561213872960011
-0,0560030556987889
-0,0559907311889999
-0,056025502754267
-0,0560464516734064
-0,055994818106694
-0,0558180884017448
-0,0554737057811267
-0,0549321277633222
-0,0541789966385079
-0,0532162514343837
-0,052062086280085
-0,0507497448996538
-0,049325227340072
-0,047844066100248
-0,0463673980886873
-0,0449576108524986
-0,0436738722838065
-0,0425678602799799
-0,0416799923521745
-0,0410364165345996
-0,0406469676032035
-0,0405042213440577
-0,0405837002744727
-0,0408452030637424
-0,0412351531965704
-0,0416897957594576
-0,0421390192354382
-0,0425105450885358
-0,0427342133265236
-0,0427460971931249
-0,0424922030560721
-0,0419315496033858
-0,0410384697470885
-0,0398040346971998
-0,0382365579174897
-0,0363611927061174
-0,0342186872564607
-0,0318634023524188
-0,0293607275764877
-0,0267840513713299
-0,0242114488196179
-0,0217222498621499
-0,0193936416512473
-0,0172974440173092
-0,01549717878664
-0,014045533889097
-0,0129823032885754
-0,0123328647173901
-0,0121072392415393
-0,0122997596278353
-0,0128893576657192
-0,0138404631679781
-0,0151044885950019
-0,0166218525822403
-0,0183244731469791
-0,0201386375649633
-0,0219881321850281
-0,0237974936068218
-0,0254952250275652
-0,0270168106806068
-0,0283073594914672
-0,0293237183543349
-0,0300359168971002
-0,0304278394303108
-0,0304970648473573
-0,0302538692334296
-0,0297194453219405
-0,0289234532019049
-0,027901072781363
-0,0266897751421478
-0,0253260622305827
-0,023842438255466
-0,0222648689966726
-0,0206109560262902
-0,0188890025112381
-0,0170980788258258
-0,0152291144512036
-0,0132669539930079
-0,0111932270534526
-0,00898980194910517
-0,00664252955442947
-0,0041449423072371
-0,00150155963602621
0,00126953265974237
0,00413511510682456
0,00704649140625374
0,0099404853510119
0,0127417828250934
0,0153665075277625
0,0177268072543245
0,0197361304898718
0,0213147999149935
0,0223954475777582
0,0229278708832748
0,0228829009420877
0,0222549436841265
0,0210629545583486
0,0193497317410666
0,0171795502854697
0,014634298744685
0,0118084082461474
0,00880297006191694
0,00571951147443364
0,00265393380388281
-0,000308893057106224
-0,00309943848637504
-0,00566637331419036
-0,00797776368599117
-0,0100205210075954
-0,0117981882500922
-0,0133272937111758
-0,0146326353289747
-0,0157419595516777
-0,016680558808397
-0,0174663246667962
-0,0181057576929452
-0,0185913522734109
-0,0189006518310897
-0,018997117432254
-0,0188327839963236
-0,0183525082114153
-0,0174994562193104
-0,0162213515595865
-0,0144769168326288
-0,0122419046886528
-0,0095141294544314
-0,00631697964326496
-0,00270100866124166
0,00125664317381014
0,00545506065631913
0,0097744732524773
0,0140829700309637
0,0182445345644561
0,0221277979708537
0,0256148300979721
0,0286092662651131
0,031043102705068
0,0328815855693719
0,0341257590796888
0,0348124169445911
0,0350114030789655
0,0348204165808469
0,0343576748059474
0,0337529610209068
0,033137715492306
0,0326349101857086
0,0323494710032259
0,0323599757190122
0,0327122634375024
0,0334154498379135
0,0344406629416083
0,0357226107963505
0,0371638811501379
0,038641670210623
0,0400164583641298
0,0411420086985468
0,0418759696190364
0,0420903223026182
0,0416809295081462
0,0405755123196545
0,0387394996849652
0,0361793525418784
0,0329431476540527
0,0291184020679139
0,0248273127802695
0,0202197637586204
0,0154646013328668
0,0107397891271893
0,00622211807667832
0,00207716222339938
-0,00154986290706744
-0,00454176174109497
-0,00681507986306482
-0,0083235714104944
-0,0090592630767618
-0,00905113447606463
-0,00836159697435972
-0,00708109708362761
-0,00532128637315873
-0,00320728019553247
-0,000869567726279449
0,00156386567809315
0,00397468442848974
0,00626017494136329
0,00833770830544086
0,010147483629838
0,011653478364309
0,0128426673499684
0,0137226971484453
0,0143183072770662
0,0146668680917855
0,0148134512406161
0,0148058604006885
0,014690027795406
0,0145061286391092
0,0142856865045508
0,0140498447902914
0,0138088714293399
0,0135628547794431
0,0133034471358452
