0,0419770304180919
0,0504508706135969
0,0585266477490696
0,0659560619700702
0,0725338220075879
0,0781082769707413
0,0825880034412784
0,0859439713176381
0,088207266954652
0,0894627023998431
0,0898389555405048
0,0894961414699735
0,0886118899319712
0,0873670842569303
0,0859323991140617
0,0844566619177767
0,0830578681039921
0,0818174230523763
0,080777887420577
0,0799441950627064
0,0792880207294002
0,0787547233338244
0,0782721001376612
0,077760072137287
0,0771403882081098
0,0763454845377715
0,0753257586232204
0,074054699196495
0,0725315358769374
0,0707813130754147
0,0688525290375352
0,066812691771652
0,0647423108871689
0,0627279552374806
0,0608550533856686
0,0592010964789783
0,0578298263075301
0,0567868655316748
0,0560970869230384
0,055763840847022
0,0557699829223698
0,0560804835233982
0,0566462716735963
0,0574088782722371
0,0583054033082089
0,0592733394708704
0,0602548365850478
0,0612000794667916
0,0620695650577142
0,0628351901781919
0,0634801854717885
0,0639980418669306
0,06439066265919
0,0646660300716557
0,0648356962039571
0,0649123948253135
0,0649080263575458
0,0648322003370582
0,0646914366448755
0,0644890387833064
0,0642255695457856
0,063899790410636
0,0635098779576107
0,0630547077594199
0,0625350000389999
0,0619541501198391
0,0613186160584069
0,060637799346416
0,0599234242579362
0,0591884891198302
0,0584459204605125
0,057707102270112
0,0569804726973639
0,056270377440066
0,0555763431616747
0,0548928886254724
0,0542099309032643
0,0535137758275387
0,0527886133454718
0,0520183771812047
0,0511887811565978
0,0502893168126327
0,0493149920766855
0,0482676093234293
0,0471564218662066
0,0459980665976984
0,0448157415257601
0,0436376730421997
0,0424949913186472
0,0414191956409414
0,0404394382487681
0,0395798804005876
0,0388573750283068
0,0382797062017258
0,0378445685477906
0,0375394042146763
0,0373421369298396
0,0372227597038355
0,0371456525355581
0,0370724369135558
0,0369651215557943
0,0367892638405308
0,0365168666717995
0,0361287516496688
0,035616194548665
0,0349816739745071
0,0342386628144583
0,0334104772654974
0,0325282820624191
0,0316284251846295
0,0307493341171155
0,0299282431963364
0,0291980345717425
0,0285844627607847
0,0281039961626356
0,0277624517879116
0,027554527379981
0,0274642548759809
0,0274663181474843
0,0275281037070091
0,0276122921267972
0,0276797556621767
0,0276925073898478
0,0276164505253921
0,0274237024296788
0,0270943133460514
0,0266172602857375
0,0259906657988858
0,0252212628423086
0,0243231939777014
0,0233162895232021
0,0222240101391161
0,0210712612952721
0,0198822887553082
0,0186788460673373
0,0174787895117483
0,0162952070287198
0,0151361303618684
0,0140048199248295
0,0129005553987632
0,0118198173180709
0,0107577100370465
0,00970945765585621
0,00867180284683072
0,00764415388695928
0,00662935535860883
0,00563399978280929
0,00466824630516854
0,00374516366252872
0,00287966295661369
0,00208712664610136
0,00138186994192882
0,000775586810060348
0,000275933980079864
-0,000114607158574103
-0,000399477274103988
-0,000588317577370424
-0,000696746210216994
-0,000745644095779011
-0,000760005133625641
-0,000767443228769371
-0,000796477080651577
-0,000874730849057554
-0,00102719348898971
-0,00127467190042179
-0,00163255413135731
-0,00210997090897393
-0,0027094095732033
-0,00342679722244059
-0,004252032951021
-0,00516991540029761
-0,00616138417977385
-0,00720497370465249
-0,00827836692315479
-0,0093599342534641
-0,0104301494579197
-0,0114727877680388
-0,0124758308424927
-0,0134320259958001
-0,0143390718022428
-0,0151994267094212
-0,0160197602605146
-0,0168100867597643
-0,0175826379974757
-0,0183505446607324
-0,0191264052048699
-0,0199208264983609
-0,020741022614565
-0,0215895570909983
-0,0224633098172409
-0,023352742601582
-0,0242415271417408
-0,0251065855854893
-0,0259185768292824
-0,0266428413111513
-0,0272407934879448
-0,0276717251810143
-0,0278949555245262
-0,0278722359145561
-0,0275702929924855
-0,026963371429248
-0,0260356233395003
-0,0247831845846688
-0,0232157817438497
-0,0213577281476771
-0,0192481934565415
-0,0169406679991364
-0,0145015889497631
-0,0120081476566815
-0,00954535274928064
-0,00720247791630026
-0,00506907237451162
-0,00323075172075395
-0,00176501356982118
-0,000737333136365564
-0,000197787143562948
-0,000178429622735518
-0,000691601469000488
-0,00172929942876517
-0,00326366328540925
-0,0052485670540606
-0,00762222637487193
-0,010310665490831
-0,013231828509608
-0,0163000756727224
-0,0194307795012086
-0,0225447301202921
-0,0255720742317067
-0,0284555470305792
-0,0311528081274392
-0,033637757348204
-0,0359007790113166
-0,0379479384876174
-0,0397992267063643
-0,0414860115049442
-0,0430479046153889
-0,0445292862965624
-0,0459757439226835
-0,0474306758083116
-0,0489322880904224
-0,050511173112019
-0,0521886059674875
-0,0539756362965438
-0,0558729898719556
-0,0578717341070974
-0,0599546078957952
-0,0620978731162589
-0,0642735154921836
-0,0664516080017575
-0,0686026509118673
-0,0706997178295959
-0,0727202647817995
-0,0746474962191859
-0,0764712243153029
-0,0781882021135697
-0,0798019531385792
-0,0813221566323789
-0,0827636759059954
-0,0841453356764028
-0,0854885618665025
-0,0868159944931415
-0,0881501721787738
-0,0895123674724934
-0,0909216280863964
-0,0923940532068411
-0,0939423089303441
-0,0955753651173308
-0,0972984195050405
-0,0991129649908722
-0,10101695299991
-0,103005009500085
-0,10506866933618
-0,107196607507365
-0,109374860755912
-0,111587047202797
-0,11381460366698
-0,116037068119582
-0,118232437212177
-0,120377625525292
-0,122449044343128
-0,124423304282819
-0,126278029492093
-0,127992753367447
-0,129549848950602
-0,13093543347026
-0,132140177808477
-0,133159949340397
-0,13399622140951
-0,134656194668587
-0,135152593914158
-0,135503127429683
-0,135729622240429
-0,135856875684714
-0,135911288815706
-0,135919367922771
-0,135906194854856
-0,135893973305364
-0,135900755959435
-0,135939446412911
-0,136017150837896
-0,136134928965649
-0,136287964274951
-0,1364661417596
-0,136654990988215
-0,136836924970466
-0,136992683850054
-0,13710287835531
-0,137149522398452
-0,137117447424145
-0,136995502645663
-0,136777464002648
-0,136462598727854
-0,136055859658865
-0,135567711571794
-0,135013618416112
-0,134413243350132
-0,133789431233008
-0,133167054497134
-0,132571807626314
-0,132029032895019
-0,1315626511895
-0,131194257855599
-0,130942426085433
-0,130822241020207
-0,130845068270364
-0,131018542510897
-0,131346746480791
-0,131830539132182
-0,13246798438521
-0,133254829093212
-0,134184980248019
-0,135250936634949
-0,13644413830086
-0,13775520755471
-0,139174066806052
-0,140689930537281
-0,142291180348984
-0,143965142683431
-0,145697797981787
-0,147473457377866
-0,149274448208455
-0,151080852472755
-0,152870342716493
-0,154618157508425
-0,156297253567567
-0,157878663698056
-0,159332078941904
-0,160626659992598
-0,161732067294014
-0,162619681990035
-0,163263971872722
-0,163643938910784
-0,163744569161464
-0,163558193434649
-0,163085659551
-0,162337215813532
-0,161333011508029
-0,160103134529812
-0,158687128593987
-0,157132962202171
-0,155495457186851
-0,153834223911372
-0,15221119029521
-0,150687849393084
-0,149322381845716
-0,148166831748327
-0,147264524554731
-0,146647911385158
-0,146337004670284
-0,146338535656451
-0,14664591672043
-0,147240033676358
-0,148090829684741
-0,149159578015755
-0,150401681560862
-0,151769788134561
-0,153216977400946
-0,154699761602305
-0,156180650683923
-0,157630063265159
-0,159027416809149
-0,160361299479214
-0,16162870706945
-0,162833413982835
-0,163983629612536
-0,16508916241036
-0,166158365997719
-0,16719516853673
-0,168196484174154
-0,169150272137707
-0,170034446403338
-0,170816751119503
-0,171455611479153
-0,171901855807326
-0,172101093429109
-0,171996435898148
-0,171531177539888
-0,170651014402175
-0,169305385528112
-0,167447570199288
-0,165033268845437
-0,162017528549235
-0,158350037438925
-0,153968992922604
-0,148793931346749
-0,142718074318112
-0,135600882837991
-0,127261599125745
-0,117474585331612
-0,105967230140757
-0,0924210859550549
-0,0764767240316243
-0,0577425619245912
-0,0358076415159277
-0,0102580362953398
0,0193037341139193
0,0532371817046217
0,0918413504655269
0,135332632716705
0,183824273159773
0,23730891550338
0,295645430792341
0,358551056106757
0,425599579084869
0,496225946666599
0,569737280282739
0,645329873001026
0,722111357222727
0,799126893917011
0,87538797253075
0,949902245563883
1,02170276712763
1,08987506582689
1,15358065515446
1,21207585643719
1,26472515942817
1,31100874662616
1,35052422788856
1,38298303875916
1,40820231707142
1,426093359549
1,43664795108262
1,43992393997821
1,43603139775129
1,42512055671458
1,40737247650173
1,38299307383924
1,35221078628925
1,31527776225101
1,27247410888554
1,22411441784538
1,17055555204883
1,11220453502405
1,04952534875221
0,98304351857925
0,913347537245337
0,841086438580238
0,766963151871152
0,691723622407651
0,616142041752346
0,541002862644668
0,467080550657119
0,39511822550743
0,325806453898224
0,259763465625591
0,197517976723547
0,13949562690953
0,0860097900468424
0,0372572176011447
-0,00668134864537735
-0,0458357807901389
-0,0803368681810784
-0,110403050361712
-0,136324493478551
-0,158445532478733
-0,177146531155329
-0,192826166149888
-0,205885028434265
-0,216711270471084
-0,225668826353244
-0,233088514479619
-0,239262116234774
-0,244439326356032
-0,248827304663222
-0,252592433943942
-0,255863809797591
-0,258737955345228
-0,261284262939563
-0,263550709143353
-0,265569458770738
-0,267362058172165
-0,268944006837181
-0,270328580627966
-0,271529852425735
-0,272564912195229
-0,273455326647691
-0,274227899691892
-0,274914801745367
-0,275553133241407
-0,276183980565036
-0,276851016315975
-0,277598694440516
-0,278470097197685
-0,279504506054411
-0,280734791403059
-0,282184743681086
-0,283866496806769
-0,285778218840643
-0,287902259289319
-0,290203942989111
-0,292631183797775
-0,295115055977954
-0,297571407814937
-0,299903533644733
-0,302005841883915
-0,303768374415942
-0,305081954236445
-0,305843671272217
-0,30596236789356
-0,305363761595507
-0,303994846371533
-0,301827247769677
-0,298859268106577
-0,295116443736421
-0,290650539324103
-0,285537016444248
-0,279871126362377
-0,273762879940042
-0,267331232445598
-0,260697880188408
-0,253981094132208
-0,24729001032682
-0,240719758511772
-0,234347741716281
-0,228231286940177
-0,222406777924343
-0,216890264794761
-0,211679431840194
-0,206756703211543
-0,20209318527214
-0,197653089996309
-0,193398260262751
-0,189292426287106
-0,185304861344044
-0,181413170097107
-0,177605028080652
-0,173878788192924
-0,170242970776233
-0,166714749199702
-0,163317624747638
-0,16007854645254
-0,157024768576196
-0,154180748436136
-0,151565370246137
-0,149189739136062
-0,147055728024029
-0,145155384809921
-0,143471225508222
-0,141977358083837
-0,140641308987093
-0,13942636594887
-0,138294211195068
-0,137207601692234
-0,136132858148772
-0,135041950938949
-0,13391401579133
-0,132736190219876
-0,131503727619123
-0,13021941334608
-0,128892369920878
-0,127536391013134
-0,126167981851501
-0,124804304028028
-0,123461224158215
-0,122151648947053
-0,120884296019559
-0,119663003941712
-0,118486630685992
-0,11734953261978
-0,116242561072823
-0,115154465679831
-0,114073557007523
-0,11298945857193
-0,111894771734625
-0,110786486451093
-0,109666995095552
-0,108544603177995
-0,10743347616236
-0,10635301165901
-0,105326676578372
-0,104380395040792
-0,103540611191653
-0,102832178454926
-0,102276241246438
-0,101888275820883
-0,1016764441619
-0,101640389968619
-0,101770571304036
-0,102048183324075
-0,102445680258938
-0,102927862006152
-0,103453450746205
-0,10397704985811
-0,104451353346359
-0,10482946048926
-0,105067147990402
-0,105124960290689
-0,104969996642486
-0,104577299321096
-0,103930778502103
-0,103023643347965
-0,101858342919883
-0,100446052186786
-0,0988057653992367
-0,0969630797021109
-0,0949487649854182
-0,0927972211114993
-0,0905449210451702
-0,088228928766909
-0,0858855655460418
-0,0835492787585125
-0,0812517459488855
-0,0790212250724482
-0,0768821417841016
-0,0748548877225903
-0,0729557912600901
-0,0711972148784485
-0,0695877314124904
-0,0681323346650718
-0,066832647555898
-0,0656871019976162
-0,0646910776375786
-0,0638370000245027
-0,0631144110879183
-0,0625100347648768
-0,0620078670003948
-0,0615893215766257
-0,0612334609469686
-0,0609173347041292
-0,0606164381553454
-0,0603052907153614
-0,059958119859694
-0,0595496226065944
-0,0590557645339152
-0,0584545674829456
-0,0577268325106188
-0,0568567450208074
-0,0558323146022022
-0,0546456126327977
-0,0532927854271896
-0,0517738383911823
-0,0500922057410516
-0,0482541390894718
-0,0462679647694817
-0,0441432725399957
-0,0418901058349201
-0,039518225106946
-0,0370365106390003
-0,0344525596821773
-0,0317725157165125
-0,0290011464055726
-0,0261421632488395
-0,0231987521025912
-0,0201742619001883
-0,0170729811347567
-0,0139009198455646
-0,0106665102585816
-0,0073811426631219
-0,004059464539743
-0,00071938966593381
0,00261821149008784
0,00593014034704703
0,00919178818963838
0,0123782854276992
0,0154657993788564
0,0184328795094063
0,0212617389790829
0,0239393607336663
0,0264583256338787
0,0288172788165339
0,0310209772831057
0,0330798945314602
0,0350093942132469
0,0368285212038795
0,038558491989432
0,0402209938299182
0,041836421258384
0,0434221872116004
0,0449912434782382
0,0465509311886927
0,0481022577555871
0,0496396639270679
0,0511513061385386
0,052619838401121
0,0540236380351915
0,0553383841078124
0,056538869496366
0,0576009095514834
0,0585032038317366
0,0592290128827069
0,059767528938229
0,0601148460952894
0,0602744695297673
0,060257341442476
0,0600814002744489
0,0597707256865847
0,0593543517444797
0,058864852077015
0,0583368117686872
0,0578053007639484
0,0573044529572473
0,0568662354403978
0,0565194658490547
0,0562891054395542
0,0561958247198757
0,0562558105129194
0,0564807611833413
0,0568780027440952
0,0574506540839189
0,058197774934742
0,0591144447437151
0,0601917424492704
0,0614166237692764
0,062771720665888
0,064235113786032
0,0657801495301515
0,0673753860929971
0,0689847553952064
0,0705680191466945
0,0720815776712793
0,0734796608217842
0,0747158938742658
0,0757451910404316
0,0765258890454971
0,0770219972980991
0,0772054133165
0,0770579356810807
0,0765729041539398
0,0757563089382406
0,0746272381829192
0,0732175731620128
0,0715708913296566
0,0697405947659518
0,0677873408258927
0,0657759081946065
0,0637716802244888
0,0618369641477201
0,0600273861249403
0,0583886059576727
0,05695358091987
0,0557405762343977
0,0547520723912885
0,0539746601488307
0,0533799470491957
0,0529264295877222
0,0525622179785239
0,052228440776315
0,0518631088377563
0,0514051857101107
0,050798596823376
0,0499959137993127
0,0489614723520243
0,047673720897352
0,0461266492048673
0,0443302084129453
0,0423097010357283
0,0401041875151106
0,0377640197939486
0,0353476680351074
0,0329180504517206
0,0305386055562745
0,0282693593808664
0,0261632368704965
0,0242628472894731
0,0225979398044601
0,0211836798666602
0,0200198428750889
0,0190909624900054
0,0183674107606132
0,0178073297815923
0,0173592834028866
0,0169654557201494
0,0165651930143003
0,0160986691273873
0,0155104517054149
0,0147527581205729
0,0137882142237533
0,0125919644850039
0,011153026100537
0,00947482925707697
0,00757493759257297
0,00548399359199401
0,00324397985647127
0,000905925966990433
-0,00147278041729433
-0,00383130223578356
-0,00610830054966775
-0,00824474748388973
-0,0101864501283251
-0,0118861596770878
-0,0133051761082401
-0,0144143990626471
-0,0151948170620658
-0,0156374664973051
-0,0157429259641189
-0,0155204379461411
-0,0149867667652316
-0,0141649081603464
-0,0130827617751265
-0,0117718641807419
-0,0102662585388142
-0,00860155011788101
-0,00681416745053073
-0,00494082006960538
-0,00301811843734157
-0,00108230241153206
0,000830986674201282
0,00268695750358492
0,00445200409855708
0,00609417002295107
0,00758376472566212
0,00889412935057748
0,0100025222001501
0,0108910687338951
0,0115477005210204
0,011966994358499
0,0121508186779951
0,0121087002098822
0,0118578395343321
0,0114227284717922
0,0108343531094656
0,0101290008849378
0,00934672517364711
0,00852955290751892
0,00771954660840915
0,00695684915269557
0,00627784571627842
0,00571357171734125
0,00528847844930147
0,0050196407357879
0,0049164556742702
0,00498084147050627
0,00520790407314606
0,0055870005990512
0,00610309592825739
0,00673828541259439
0,00747334459376588
0,00828916732801207
0,00916796681347988
0,0100941385576931
0,011054718107205
0,012039406340697
0,0130401776267282
0,0140505273174187
0,0150644510917856
0,0160752762395769
0,0170744815736584
0,0180506466430477
0,0189886619046505
0,0198693101785954
0,0206692978909834
0,0213617750856302
0,0219173393195159
0,0223054742368614
0,0224963326139248
0,022462739582814
0,0221822675031927
0,0216392216304801
0,0208263764685034
0,0197463164084696
0,0184122599008911
0,0168482818849081
0,0150888916692606
0,0131779695616093
0,0111671116105999
0,00911347433633038
0,00707724703648064
0,00511890555106627
0,00329641640839108
0,00166256313760204
0,000262557248875438
-0,000867924096975097
-0,00170416162567416
-0,00223320353264761
-0,0024540270587334
-0,00237706026455965
-0,00202311256015575
-0,00142179829301028
-0,000609566493009321
0,000372529951787458
0,00148118185924875
0,00267314361523095
0,00390738971482549
0,0051469896417905
0,00636060680605407
0,00752355618287973
0,00861838686669675
0,00963498770051797
0,0105702443695579
0,0114273028793833
0,0122145156877553
0,012944161779421
0,0136310400468132
0,0142910363519104
0,0149397589372062
0,0155913252152093
0,016257366541423
0,0169462977255083
0,0176628763625638
0,0184080551224486
0,01917910946921
0,0199700052924054
0,020771956692519
0,0215741145613702
0,0223643220220976
0,0231298733698715
0,0238582185878235
0,0245375651240211
0,025157341553515
0,0257085027784734
0,0261836723396767
0,0265771328590634
0,0268846893544219
0,0271034410974319
0,0272315049000176
0,0272677357270539
0,0272114890562983
0,0270624636509533
0,0268206538539287
0,0264864279825175
0,0260607349840223
0,0255454264520192
0,0249436667276154
0,0242603913989019
0,0235027652335759
0,0226805853256746
0,021806574655293
0,0208965155186222
0,0199691813020513
0,0190460382361099
0,0181507052060278
0,0173081782131741
0,0165438452784654
0,0158823360024583
0,0153462661467884
0,0149549502067571
0,0147231628899275
0,0146600329817198
0,0147681498771098
0,0150429541716014
0,0154724695700888
0,0160374148504696
0,0167117128685916
0,0174633899720564
0,0182558352419202
0,0190493662007342
0,0198030274941336
0,0204765328092766
0,0210322489605484
0,021437115372293
0,0216643924735539
0,0216951388140809
0,021519328712601
0,0211365393357402
0,0205561574313047
0,0197970804043238
0,0188869128368568
0,0178606865974619
0,0167591589968358
0,0156267677306915
0,0145093422905274
0,0134516879959111
0,0124951697668202
0,0116754274315788
0,0110203521883317
0,0105484445297991
0,0102676576167419
0,0101748071737175
0,0102556003349746
0,0104853027356131
0,0108300271372555
0,0112485899171565
0,0116948459939998
0,0121203804614749
0,0124774086087466
0,0127217171446508
0,0128154700055648
0,0127297033286071
0,0124463465210845
0,0119596297185632
0,0112767713196011
0,0104178810105965
0,00941506135863087
0,00831074168180671
0,00715532821769489
0,006004301127792
0,00491492825830791
0,00394279488516507
0,00313836551443139
0,00254379665483451
0,00219020774097324
0,00209559147620648
0,00226350628701742
0,00268264470358472
0,00332731552517488
0,00415881837366507
0,00512763067979335
0,00617627342968356
0,00724267680132372
0,00826383337655434
0,00917950728015353
0,00993576372324353
0,0104880953597663
0,0108039487168313
0,0108644939047769
0,0106655310726015
0,0102174841427403
0,00954449234361629
0,00868266885646377
0,00767764951684729
0,00658159944443168
0,00544987871976507
0,00433758776215169
0,00329621770323929
0,00237062068818413
0,00159649058895632
0,000998507856654211
0,000589255804054883
0,000368962691233126
0,000326068155741123
0,000438557520769376
0,000675956939393596
0,00100183946762723
0,00137665979000333
0,00176071544352532
0,00211702629233061
0,00241393199245146
0,00262722868453444
0,00274169974650219
0,00275193885966118
0,00266241404229663
0,00248677530047325
0,00224646252254466
0,00196872051898642
0,00168417118251697
0,00142412556133061
0,00121783875341499
0,00108991631067526
0,00105807162666827
0,00113140992835346
0,00130937738529876
0,0015814659093352
0,00192770865674734
0,002319942021079
0,00272375126179405
0,00310096332230945
0,00341250599282339
0,00362142097926391
0,00369580245351591
0,00361143388278856
0,00335391476032722
0,00292010426184874
0,00231875849420627
0,00157029829654915
0,000705711013583202
-0,000235342939704275
-0,00120708486582493
-0,00216064667169302
-0,0030473473074056
-0,00382196852533742
-0,0044457797876374
-0,00488908041527999
-0,00513306440250694
-0,00517086689075034
-0,00500771687558428
-0,00466019291958294
-0,00415465152538127
-0,00352496511324384
-0,00280976256664769
-0,00204940506053859
-0,00128294991030492
-0,000545353549478399
0,000134858475269602
0,000737269512982326
0,0012504717211854
0,00167213150065768
0,00200823844985062
0,00227162820922892
0,00247993350514699
0,00265316729967687
0,00281117282636914
0,00297118447018397
0,00314573018206131
0,00334107150057738
0,00355632456175116
0,00378333947091863
0,0040073423314061
0,00420827080168706
0,0043626672615394
0,00444593978477835
0,00443476529866497
0,00430939506582457
0,00405563137509477
0,00366627546640327
0,0031418973568771
0,0024908437925207
0,00172847481815576
0,000875695540478221
-4,30798154164362E-05
-0,00100233612773117
-0,00197800218758972
-0,00294987815655095
-0,00390369764406164
-0,00483260619085498
-0,00573788928336494
-0,00662885135781978
-0,0075218264900842
-0,00843838436243482
-0,00940287398505333
-0,0104395151293205
-0,0115692970176573
-0,0128069706443907
-0,0141584221940409
-0,0156186898815058
-0,0171708368659442
-0,0187858227664912
-0,0204234316418098
-0,0220342224527583
-0,023562377010454
-0,0249492384158099
-0,0261372673500009
-0,0270741003791642
-0,0277163778114451
-0,0280330204544033
-0,0280076742371107
-0,0276401060034463
-0,0269464176389012
-0,0259580420089043
-0,0247195848583579
-0,0232856732265934
-0,021717054816748
-0,0200762567714103
-0,0184231509526531
-0,0168107825127736
-0,0152817983571958
-0,0138657635458568
-0,0125775807711358
-0,0114171368246368
-0,0103701981694109
-0,00941047388259284
-0,00850266719142587
-0,00760625479388523
-0,00667967312029
-0,00568455776907643
-0,00458967931610298
-0,00337424583472362
-0,00203029741682976
-0,000563996069639822
0,00100429112511469
0,00264111481680423
0,00430216900316376
0,00593542307015931
0,00748488786949483
0,00889469105440036
0,0101131126105539
0,0110962373059144
0,0118109161149317
0,0122367903168362
0,0123672146633226
0,0122090124139915
0,0117810968794879
0,0111120925238646
0,0102371751762659
0,00919441803245623
0,00802097220141698
0,00674942394735975
0,00540465452253855
0,00400148405521747
0,00254331229511669
0,00102188218058299
-0,000581805318313587
-0,00229549636653548
-0,00415277414998316
-0,00618947737723003
-0,00843974960135503
-0,0109320541750781
-0,0136854940833485
-0,0167067519590519
-0,0199879156352369
-0,0235053830754227
-0,0272199536459219
-0,0310781178892308
-0,0350144631584664
-0,0389550254098751
-0,0428213451420993
-0,0465349334301379
-0,0500218259638017
-0,0532169006533422
-0,0560676571242763
-0,0585372017480961
-0,0606062454133062
-0,0622739973348643
-0,0635579203682144
-0,0644923948810301
-0,065126412825035
-0,0655204858527286
-0,0657429968968439
-0,0658662509930604
-0,0659624873578565
-0,0661001016511708
-0,0663402972017124
-0,0667343403530431
-0,067321542305519
-0,0681280327271183
-0,0691663336994125
-0,0704356906125923
-0,0719230729339335
-0,0736047249127423
-0,0754481255657139
-0,0774142089615319
-0,0794596989449722
-0,0815394252722147
-0,0836085082230857
-0,0856243233608958
-0,0875481844106101
-0,0893467076815677
-0,0909928439438592
-0,0924665817483947
-0,0937553390994103
-0,0948540681047116
-0,0957651003502924
-0,0964977603632233
-0,0970677720138092
-0,0974964795747458
-0,0978099027783092
-0,0980376446770154
-0,0982116731168088
-0,0983650013365946
-0,0985303002961328
-0,0987384839968442
-0,0990173181555682
-0,0993901107340123
-0,0998745486000176
-0,100481746700701
-0,101215573568918
-0,102072309135966
-0,103040677638358
-0,104102280303045
-0,10523243044988
-0,106401369070917
-0,107575813595577
-0,108720768304664
-0,109801503714517
-0,110785595960687
-0,111644907268683
-0,112357386066784
-0,112908570710895
-0,113292694087003
-0,113513306977692
-0,113583364851567
-0,11352475407521
-0,11336726755815
-0,113147074359957
-0,112904760608514
-0,112683048099711
-0,11252432021129
-0,112468100671535
-0,112548638124441
-0,112792747587135
-0,11321804867705
-0,113831720286589
-0,11462986311337
-0,115597526554181
-0,116709416846288
-0,117931261146843
-0,119221760027489
-0,120535021181152
-0,121823332568217
-0,123040106207167
-0,124142806423163
-0,125095670200014
-0,1258720334096
-0,126456095366913
-0,126843984887349
-0,1270440325003
-0,127076203520444
-0,126970702404111
-0,126765816781249
-0,126505125805745
-0,126234247966867
-0,125997344355398
-0,125833620988849
-0,125774085417981
-0,125838806630953
-0,126034902585016
-0,126355437263346
-0,126779351080089
-0,127272478110672
-0,127789625622459
-0,128277611155886
-0,12867907588735
-0,128936826252587
-0,128998404446549
-0,128820557161113
-0,128373264271932
-0,127643006907248
-0,126634997283219
-0,125374158806854
-0,123904730132093
-0,122288465331996
-0,120601507014846
-0,118930112110249
-0,117365502978604
-0,115998191748195
-0,114912176673475
-0,114179430865382
-0,113855093172737
-0,113973728003182
-0,11454694775297
-0,115562593201872
-0,116985550818554
-0,118760160310795
-0,120814040896563
-0,123063050918155
-0,125417002202425
-0,127785686281191
-0,130084740294066
-0,132240889421949
-0,134196150245224
-0,135910662370886
-0,137363927784795
-0,138554369760048
-0,139497264791513
-0,140221239840605
-0,140763650941894
-0,141165256627389
-0,141464661370266
-0,141693023888393
-0,141869499776406
-0,141997818618485
-0,142064287550475
-0,142037374939166
-0,141868871349503
-0,141496464245577
-0,140847412929543
-0,139842885725962
-0,138402435326677
-0,136448050586624
-0,133907240015896
-0,130714675076113
-0,126812046506688
-0,122145955609639
-0,11666386154035
-0,11030831860224
-0,103009945474217
-0,0946797517400221
-0,0852015876614739
-0,0744255651954292
-0,0621633103830147
-0,0481858435963687
-0,032224745054885
-0,0139770554893132
0,00688590093861109
0,0307058836746303
0,0578217181039892
0,0885506202736143
0,123167856136026
0,161885932131662
0,204834638641908
0,252043298651023
0,303426504092525
0,358774453002426
0,417748741149953
0,479884129257361
0,544596424819386
0,611196214101602
0,678907785932786
0,746892235200272
0,814273448762223
0,880165483106626
0,943699757856099
1,00405051990063
1,06045717806595
1,11224235696495
1,15882485158046
1,19972705475028
1,23457684667967
1,26310434513298
1,28513428386943
1,30057508527445
1,30940589693199
1,3116629550368
1,30742661332156
1,29681023776711
1,27995192775349
1,25700970498094
1,22816044073367
1,19360240243352
1,15356092601525
1,10829639397917
1,05811344839317
1,00337021515605
0,944486273552382
0,881948176895507
0,816311509453362
0,748198736170276
0,678292441526604
0,607323933101351
0,536057571817229
0,465271551973939
0,395736160053864
0,328190766999083
0,263320936335014
0,201737050836529
0,143955773081801
0,090385468833584
0,0413164533300118
-0,00308340786094396
-0,0427675726553114
-0,077804364564259
-0,108365716415213
-0,13471193879157
-0,157173555978093
-0,176131388123708
-0,191996104153999
-0,205188426911511
-0,21612104831676
-0,225183122323719
-0,232727965811963
-0,239064333665582
-0,244451366232257
-0,249097055934454
-0,253159862976242
-0,256752941568584
-0,259950326574189
-0,262794379113129
-0,265303796500548
-0,267481550112133
-0,269322214053734
-0,270818274895639
-0,271965154364083
-0,27276481895286
-0,273227980772156
-0,273375002765717
-0,273235702065318
-0,27284829443677
-0,272257740740819
-0,271513746206449
-0,270668630753048
-0,26977524080437
-0,268885017905603
-0,268046284748789
-0,267302761633056
-0,266692291099187
-0,266245728488974
-0,265985952410311
-0,265926960176332
-0,266073036130516
-0,266418010760173
-0,266944660414127
-0,26762432567601
-0,268416846172613
-0,269270916822718
-0,270124962896602
-0,270908608101374
-0,271544772440848
-0,271952387705003
-0,272049662500428
-0,271757771065035
-0,271004786535542
-0,269729635582465
-0,267885822395226
-0,26544465982948
-0,262397756298899
-0,258758539291028
-0,254562648660069
-0,249867101867976
-0,244748214208041
-0,239298343733625
-0,233621616284185
-0,227828863877111
-0,222032073272451
-0,216338685340802
-0,210846105991794
-0,205636783664852
-0,200774176659904
-0,196299877758232
-0,192232087537213
-0,188565536957398
-0,185272860885289
-0,182307324549236
-0,179606711998945
-0,177098106334285
-0,174703231807465
-0,172343992197011
-0,169947830708284
-0,167452554579743
-0,164810310969181
-0,161990466064443
-0,15898122156259
-0,155789895260928
-0,152441888440764
-0,148978454734402
-0,145453466413785
-0,141929438704238
-0,138473116291464
-0,135150945988598
-0,132024754703077
-0,129147923538238
-0,126562300013202
-0,124296025449028
-0,122362379133984
-0,1207596612387
-0,119472058950968
-0,118471370968138
-0,117719409470654
-0,117170859834584
-0,116776359020785
-0,116485554382566
-0,116249924561925
-0,116025180560945
-0,115773114106701
-0,115462817262438
-0,115071256586395
-0,114583241705782
-0,1139908771102
-0,113292623273193
-0,112492116064942
-0,111596900437112
-0,110617225555538
-0,109565025511588
-0,108453175190192
-0,107295068644658
-0,106104521824043
-0,104895957378012
-0,103684790982945
-0,102487909999509
-0,101324119216901
-0,100214426591101
-0,0991820546090702
-0,0982520890872215
-0,0974507145427996
-0,0968040302612608
-0,0963364896682886
-0,0960690529322316
-0,0960171843189422
-0,0961888574567687
-0,0965827499751626
-0,097186811670767
-0,0979773764032344
-0,0989189578682942
-0,0999648250045694
-0,101058397316348
-0,102135437953339
-0,103126957946447
-0,103962683768392
-0,104574887506919
-0,104902339021266
-0,104894116196269
-0,104513005292977
-0,103738239413131
-0,10256735875419
-0,101017029434037
-0,0991227247909954
-0,0969372493895745
-0,0945281660503961
-0,0919742640436207
-0,0893612762648364
-0,0867771093600495
-0,0843068888650151
-0,0820281383838294
-0,0800064059914955
-0,0782916226114552
-0,0769154278975799
-0,0758896327063989
-0,0752059083791841
-0,074836707677427
-0,0747373367125638
-0,0748490180566176
-0,0751027184175408
-0,0754234648292682
-0,0757348449804691
-0,075963382038294
-0,0760424923812278
-0,0759157742795822
-0,0755394334406282
-0,0748837225464309
-0,0739333506306303
-0,0726868978870351
-0,0711553458252083
-0,0693598956930728
-0,0673292948228338
-0,0650969176345545
-0,0626978536453187
-0,0601662391782609
-0,057533034434089
-0,0548243968263451
-0,0520607398408877
-0,049256499950842
-0,0464205683474805
-0,043557285318809
-0,0406678481387567
-0,037751952200726
-0,0348094722803654
-0,0318419967944026
-0,0288540517023712
-0,0258538894128166
-0,022853767668536
-0,0198696987744842
-0,0169207052060055
-0,0140276681679724
-0,0112118962060102
-0,0084935677540759
-0,00589021212281324
-0,00341538719275322
-0,00107768981187216
0,00111980082284775
0,00317959200259059
0,00510935423731307
0,00692105192248981
0,00862971914786098
0,0102520072636901
0,0118046530479982
0,0133030230921734
0,0147598808415387
0,0161844985066112
0,0175821993571376
0,0189543704452819
0,0202989361713692
0,0216112343970251
0,0228851938915552
0,0241146791858061
0,0252948497348951
0,0264233766876004
0,0275013729914315
0,0285339199329729
0,0295301129199338
0,0305025975689267
0,0314666192320184
0,0324386599498145
0,0334347814348873
0,0344688266065256
0,0355506520521003
0,0366845673933042
0,0378681444098706
0,0390915298755211
0,0403373539413662
0,0415812744009947
0,0427931408829078
0,0439387072302491
0,0449817700900275
0,0458865717668449
0,0466202793978786
0,0471553428937614
0,0474715418790878
0,0475575563298633
0,0474119346271659
0,0470433828361011
0,046470355641126
0,0457199875179848
0,0448264571279304
0,0438289238024656
0,0427692082774945
0,0416894076136464
0,0406296351086923
0,0396260599480531
0,0387093900147231
0,0379038976398936
0,0372270361833429
0,0366896400439589
0,0362966470341912
0,0360482350067747
0,0359412284469168
0,0359706087544253
0,0361309561386643
0,0364176619117979
0,0368277765041563
0,0373603982276855
0,038016557022672
0,0387986015276065
0,0397091517479789
0,0407497282512592
0,0419192075162987
0,043212277984996
0,0446180798827443
0,0461192028424946
0,047691189173344
0,0493026492855376
0,0509160426410169
0,0524891172397117
0,0539769382926996
0,055334377956096
0,0565188882238914
0,0574933429485379
0,0582287162018363
0,0587063649032397
0,0589197044700434
0,058875105969895
0,058591899039212
0,0581014324557591
0,0574452182562057
0,0566722597193553
0,0558357321162659
0,0549892420839816
0,0541829318371028
0,053459714520638
0,0528519248440302
0,0523786444744869
0,052043916206617
0,0518359980207319
0,0517277326584057
0,0516780261982425
0,0516343467790161
0,0515360786099635
0,0513185027318282
0,0509171296254444
0,0502720832666512
0,0493322334545694
0,0480587931660226
0,0464281385174458
0,0444336671130321
0,0420865813350891
0,0394155607554355
0,0364653661261821
0,0332944903867957
0,0299720342687641
0,026574031102459
0,0231794742550338
0,0198663098298036
0,0167076470968671
0,013768411255432
0,0111026207640945
0,00875141859716799
0,00674192818450878
0,00508694531462293
0,00378542151276199
0,00282364642834227
0,00217699949273805
0,00181211657835721
0,0016893061814301
0,00176505132308431
0,00199444638482099
0,00233344005558945
0,00274078371582495
0,00317961575422683
0,0036186436634062
0,00403291468771633
0,00440419034860069
0,00472095917982537
0,0049781349001224
0,00517649438270025
0,00532191188037679
0,00542444431005426
0,00549731839186632
0,00555586542391047
0,00561644468343994
0,00569539258229674
0,0058080322002703
0,00596777647599322
0,00618535765247866
0,00646821471950933
0,00682006856851741
0,00724071050542238
0,00772602289322689
0,00826824073303924
0,00885645005543927
0,00947730373597989
0,0101159189129171
0,0107569040365301
0,0113854494950419
0,011988405417266
0,0125552652413592
0,0130789750629899
0,0135564972159439
0,0139890718693717
0,01438214176621
0,0147449310837549
0,0150896975978707
0,0154307054583737
0,0157829912643741
0,0161610163085424
0,0165773107581029
0,0170412196490359
0,017557855289236
0,0181273461440203
0,0187444496752552
0,0193985678000604
0,0200741711391641
0,0207516049863793
0,0214082188782499
0,0220197356310975
0,0225617570181691
0,0230112935054269
0,0233482054125144
0,0235564523058475
0,0236250653387785
0,0235487817239093
0,023328309177709
0,0229702182277615
0,022486488948895
0,0218937634516953
0,0212123741961454
0,0204652296292755
0,0196766421125762
0,0188711789228813
0,018072606254798
0,0173029802811252
0,0165819205166978
0,0159260811588274
0,0153488179694524
0,0148600333643211
0,0144661720900436
0,0141703348059665
0,0139724770610111
0,0138696658886642
0,0138563742569775
0,0139248033528153
0,0140652322706031
0,0142664024680453
0,0145159488490394
0,014800889598963
0,0151081825815255
0,0154253474774708
0,0157411409395902
0,0160462582607092
0,0163340213787926
0,0166010014335297
0,0168475165371773
0,0170779435555575
0,0173007875281811
0,0175284643609
0,0177767710462388
0,0180640418058613
0,0184100161516446
0,0188344735062852
0,0193557158706129
0,0199890021948947
0,0207450530603217
0,021628749849557
0,0226381475787248
0,0237639045291787
0,0249892055032278
0,0262902205834558
0,0276371003067197
0,028995464488933
0,0303282992253358
0,0315981387263806
0,0327693791188085
0,0338105531789236
0,0346963902108292
0,0354094949486559
0,035941503213406
0,0362936085741477
0,0364764008668219
0,0365090104639759
0,0364176074705571
0,0362333579385282
0,0359899852811132
0,035721120310875
0,0354576444992464
0,035225236108855
0,0350423169658421
0,0349185694732031
0,0348541509895348
0,0348396791357166
0,0348570011308788
0,0348806977213354
0,0348802127139323
0,0348224474302749
0,0346746198826598
0,0344071644367826
0,0339964413480108
0,0334270374736219
0,0326934689365255
0,0318011413254801
0,030766479664241
0,0296162044989074
0,0283857968906051
0,0271172586679919
0,0258563298952796
0,0246493687192122
0,0235401261730537
0,0225666578899353
0,0217586053255988
0,0211350517190712
0,0207031148036283
0,020457382660754
0,0203802354465242
0,0204430290335175
0,0206080521191574
0,0208311110306227
0,0210645507495688
0,0212604899994105
0,0213740348264084
0,0213662398309138
0,0212066084188161
0,0208749612535928
0,0203625522404357
0,0196723698175178
0,018818623339628
0,017825474977368
0,0167251321528148
0,0155554598464639
0,0143573029481033
0,0131717240178726
0,0120373605519263
0,010988088668922
0,0100511488088219
0,00924584653961731
0,00858289165968268
0,00806438575887694
0,00768441678491213
0,00743017314554982
0,00728345319253556
0,00722242136028111
0,00722345144887246
0,00726290105117956
0,00731867807067738
0,00737148871279825
0,00740569329642404
0,00740973802051527
0,0073761734415273
0,00730130977915577
0,00718459162536363
0,0070277972413548
0,00683417837013572
0,00660765462301759
0,00635216239931095
0,00607123366168003
0,00576784739375949
0,00544455969712044
0,0051038812074409
0,00474883684097639
0,00438361651058383
0,00401420938871721
0,00364891049454661
0,00329859760806629
0,00297669815884462
0,00269879786331238
0,00248188245801827
0,0023432468919657
0,00229914837728792
0,00236331619006705
0,00254545791391222
0,00284991561865978
0,00327462408728761
0,0038105059839038
0,0044414066528552
0,00514462649689415
0,00589205540700084
0,00665185633069357
0,00739058925408768
0,00807561815223023
0,00867760693658813
0,00917289022215738
0,00954550355036199
0,00978867653792058
0,00990563038106527
0,00990957544125461
0,00982287089649158
0,0096753809076916
0,00950213395522444
0,00934045727537773
0,00922681040221949
0,00919357558692453
0,00926607465139163
0,00946007002944232
0,0097799728392713
0,0102179254614405
0,0107538548681168
0,0113565120096092
0,0119854290167445
0,0125936473573666
0,0131310034594416
0,0135477098148559
0,0137979437012832
0,0138431548179033
0,013654827545196
0,0132164809955504
0,012524756283963
0,011589519474081
0,0104329932671314
0,00908801297852019
0,00759557524087941
0,00600190456981228
0,00435529845227469
0,0027030228845093
0,00108851658257462
-0,00045087498886646
-0,00188547131777557
-0,00319404050346164
-0,00436377891500614
-0,0053895483257518
-0,00627250166778
-0,00701828385470468
-0,00763502989543094
-0,00813139549259718
-0,00851484448515767
-0,0087903840790436
-0,00895988630152377
-0,00902206775438171
-0,00897312617453401
-0,0088079588160121
-0,00852182155658382
-0,00811223546755832
-0,00758091464977643
-0,00693547882133321
-0,00619072771244037
-0,00536929074791232
-0,00450152155607839
-0,00362457744355767
-0,00278070256255193
-0,00201481279214426
-0,00137155283824719
-0,000892054901275091
-0,000610667701945452
-0,000551940785177055
-0,000728139897759566
-0,00113753528909945
-0,00176364856399485
-0,00257556987675988
-0,00352937193471099
-0,00457055772328973
-0,00563739267911856
-0,00666489656222187
-0,00758921197654127
-0,00835203031935542
-0,00890474505580029
-0,00921201757855434
-0,00925448138020169
-0,00903037254161713
-0,00855595366977003
-0,00786468801469415
-0,00700521347994165
-0,00603825527365183
-0,0050326941484368
-0,00406106858552454
-0,0031948293665218
-0,00249968095105473
-0,00203133506831604
-0,00183196902587605
-0,00192762728922352
-0,00232673436118267
-0,00301980541065117
-0,0039803547742616
-0,00516691780458859
-0,00652602474948437
-0,0079959017944509
-0,00951062839347255
-0,0110044543694636
-0,0124159763288648
-0,0136918903567084
-0,0147900749073512
-0,0156818111174512
-0,0163530131802894
-0,0168044139925464
-0,0170507257080765
-0,0171188658508667
-0,0170454023885363
-0,0168734215492333
-0,0166490569833955
-0,0164179362036551
-0,0162217992948721
-0,0160955262388589
-0,0160647745301517
-0,0161443808310702
-0,0163376227624318
-0,0166363737111868
-0,0170221191247038
-0,0174677415840593
-0,0179399280981558
-0,0184020100909452
-0,0188170172841372
-0,0191507129508376
-0,0193743806811599
-0,0194671516001558
-0,0194176946168371
-0,0192251384549812
-0,0188991498584922
-0,0184591536670716
-0,0179327433392992
-0,0173533906122887
-0,0167576162166048
-0,0161818261225938
-0,0156590466089421
-0,0152158042486442
-0,014869392562183
-0,0146257454820324
-0,0144781000833857
-0,0144065794957746
-0,014378764789901
-0,0143512560282727
-0,014272152213933
-0,0140843124606454
-0,0137292011657769
-0,0131510726624947
-0,0123012193960908
-0,0111419947381759
-0,0096503284194674
-0,00782047924920905
-0,00566581480413042
-0,00321946833738207
-0,000533795277918811
0,00232136949563716
0,00526157241486981
0,00819156320395912
0,0110098554945053
0,0136137522446323
0,0159045292165763
0,0177924575886481
0,0192013563102339
0,0200723953972391
0,0203669208718118
0,0200681369138863
0,0191815563656622
0,0177342115977823
0,0157726981501382
0,0133601978332952
0,0105726909481755
0,00749461472803304
0,0042142539377959
0,000819158185951515
-0,00260813124408531
-0,00599379296178176
-0,00927567037791527
-0,0124053043583834
-0,0153489753735537
-0,0180877470265809
-0,0206165707712495
-0,0229425725806739
-0,0250826922984208
-0,0270608822955834
-0,0289050919522346
-0,0306442676224204
-0,0323055846930903
-0,0339121007000781
-0,0354809788400635
-0,0370223829068611
-0,0385390914372706
-0,0400268245832422
-0,0414752257080862
-0,0428693943226449
-0,0441918305500276
-0,0454246259042656
-0,0465517219842106
-0,0475610581391734
-0,0484464407397665
-0,0492089892129844
-0,0498580455975195
-0,0504114727596461
-0,0508953089116677
-0,051342789982232
-0,0517927939024465
-0,0522877995008057
-0,052871485147718
-0,0535861167670017
-0,0544698899692613
-0,0555543961206108
-0,0568623768659386
-0,0584059163839957
-0,0601851963121654
-0,0621879062436773
-0,0643893647615571
-0,0667533642716319
-0,0692337097730949
-0,0717763796559576
-0,074322198069592
-0,0768098756745823
-0,0791792507093966
-0,0813745468898567
-0,083347459829727
-0,0850598899643322
-0,0864861572518745
-0,0876145604261618
-0,0884481798619135
-0,0890048661600394
-0,0893164038810728
-0,0894268886127767
-0,0893904027435358
-0,0892681179619926
-0,0891249878525254
-0,0890262196532559
-0,0890337285432685
-0,0892027796795406
-0,0895790123709044
-0,0901960178558109
-0,0910736085682953
-0,0922168746456755
-0,0936160754809159
-0,0952473634578895
-0,0970742869236982
-0,0990499731783665
-0,101119852758922
-0,103224756039422
-0,105304193968967
-0,10729962767083
-0,109157536842497
-0,1108321138042
-0,112287437255186
-0,113499015282897
-0,114454628397292
-0,115154447530287
-0,115610446124417
-0,115845166849989
-0,115889939634088
-0,115782676519915
-0,115565388900297
-0,115281583063763
-0,114973690546918
-0,11468068094533
-0,114435987594822
-0,114265852373053
-0,114188166581624
-0,114211852491645
-0,114336796746888
-0,114554314473878
-0,114848093491615
-0,115195543037955
-0,115569452165936
-0,115939850249415
-0,11627595624703
-0,116548104506006
-0,116729542471309
-0,116798008899927
-0,11673701894021
-0,116536803385705
-0,116194872038869
-0,115716193918526
-0,115113008521392
-0,114404301193936
-0,113614990802813
-0,112774888564295
-0,111917492698698
-0,111078684543286
-0,110295388269981
-0,10960424918073
-0,109040375727791
-0,108636179169587
-0,108420333426895
-0,108416867511948
-0,108644394920696
-0,109115479386301
-0,10983613476191
-0,110805458452222
-0,112015402228997
-0,113450690493055
-0,115088902801626
-0,116900743297672
-0,118850523064658
-0,120896881013066
-0,122993763694274
-0,125091673909504
-0,12713918224124
-0,129084675448812
-0,130878292523833
-0,13247397509013
-0,133831536244904
-0,13491863352155
-0,135712520013147
-0,136201445039229
-0,136385583699944
-0,136277393912035
-0,135901329756572
-0,135292879691243
-0,134496944840389
-0,133565622637278
-0,132555510376855
-0,131524687177046
-0,130529567043258
-0,129621836251887
-0,128845692217665
-0,128235586782348
-0,127814644512535
-0,127593877829182
-0,127572259078643
-0,127737639858025
-0,128068436020294
-0,128535929333477
-0,129106980286108
-0,129746906804641
-0,130422265227409
-0,131103275415639
-0,13176566187984
-0,132391735310339
-0,132970609712661
-0,13349753313247
-0,133972396948095
-0,13439757123378
-0,134775283201288
-0,135104804454701
-0,135379734826742
-0,1355856623428
-0,135698439907825
-0,135683252217196
-0,135494557006162
-0,135076881503173
-0,134366348403871
-0,133292707316813
-0,131781568978869
-0,129756490728617
-0,127140550597027
-0,123857078278217
-0,11982928456562
-0,114978642492439
-0,109222015100872
-0,102467684364119
-0,0946105984277485
-0,0855273035683778
-0,0750711466521398
-0,0630684085521276
-0,0493160472323483
-0,0335816838128228
-0,015606354143034
0,00488962347542041
0,0281975365118201
0,0546080523310306
0,0843962811873896
0,117804796481095
0,155025515014457
0,196181520985951
0,241310026260631
0,290347682362778
0,343119389661117
0,399331586950879
0,458570758554527
0,520307582075489
0,583906780308955
0,648642362439175
0,713717571873332
0,778288530236795
0,841490305988705
0,902463963736933
0,960383081656302
1,01447826616687
1,06405834288312
1,10852714952144
1,14739518055185
1,18028570897922
1,20693540746471
1,22718987699889
1,24099483545001
1,24838399312593
1,24946482663129
1,24440354225551
1,23341049138093
1,21672716777769
1,1946156938068
1,16735141072204
1,13521885426206
1,09851105059032
1,05753173987346
1,01259985370998
0,964055361847546
0,912265480142764
0,857630204406179
0,800586203887104
0,74160826541089
0,681207708757435
0,619927473946915
0,558333885998818
0,497005405272651
0,436518945469136
0,377434563809694
0,320279481048905
0,265532461579304
0,213609572092728
0,164852244516421
0,119518405516711
0,0777772165454485
0,0397077149678744
0,005301379980588
-0,0255316113893069
-0,0529529030600026
-0,0771839037752531
-0,0984919355479003
-0,117175432654397
-0,133549040426787
-0,147929407650033
-0,160622361229536
-0,171912009288667
-0,182052153171775
-0,191260214760996
-0,199713716932125
-0,207549203814569
-0,214863362790143
-0,221716017627351
-0,228134603950668
-0,234119713365642
-0,239651297208704
-0,24469514926443
-0,249209331952965
-0,253150265272859
-0,256478255548078
-0,259162296305217
-0,261184022637212
-0,262540741171901
-0,263247490058186
-0,263338108488361
-0,262865315579406
-0,261899816776341
-0,260528475218329
-0,258851607987665
-0,256979494158709
-0,25502821313361
-0,253114966643747
-0,251353073468503
-0,249846858934961
-0,248686687585747
-0,247944402958566
-0,247669439603705
-0,247885856656873
-0,248590508191237
-0,249752513584794
-0,251314123372825
-0,253192996293498
-0,255285816660062
-0,257473094011302
-0,259624905871383
-0,261607275924979
-0,263288829862815
-0,264547344137386
-0,265275801790943
-0,26538759524198
-0,264820567222733
-0,263539654589853
-0,26153799036933
-0,258836420555664
-0,255481496409026
-0,251542102519471
-0,247104968345883
-0,242269379835969
-0,237141453097614
-0,231828350843213
-0,226432813442705
-0,221048341076156
-0,215755304862395
-0,210618187962723
-0,20568406875568
-0,200982364386617
-0,196525761591064
-0,192312179596211
-0,188327543091863
-0,184549096357002
-0,180948965472111
-0,177497675121747
-0,174167348852504
-0,170934364033044
-0,16778129093132
-0,164698013929817
-0,161682005964613
-0,158737798683888
-0,155875754925077
-0,153110301996798
-0,150457820328438
-0,147934400123778
-0,145553678155643
-0,143324948711743
-0,141251709391541
-0,139330757448124
-0,137551900027058
-0,135898286703233
-0,134347319839972
-0,132872051778168
-0,131442941198382
-0,130029816695895
-0,128603884933152
-0,127139623821391
-0,12561641690591
-0,124019811483591
-0,122342317097233
-0,1205836997084
-0,118750766603557
-0,116856674716563
-0,114919827733618
-0,112962452926347
-0,111008965768393
-0,109084238459627
-0,107211887805902
-0,105412689388063
-0,103703210148222
-0,102094732190905
-0,100592518745811
-0,0991954506914061
-0,0978960404548483
-0,096680810686868
-0,0955310086977643
-0,0944236145667126
-0,0933325910390168
-0,0922303164870694
-0,0910891377415013
-0,0898829769619313
-0,0885889253594083
-0,0871887562370839
-0,0856702903533406
-0,0840285482836726
-0,082266627654522
-0,0803962484557836
-0,0784379177389038
-0,0764206764114145
-0,0743814059011609
-0,0723636911271695
-0,0704162580969137
-0,068591028593768
-0,066940859537087
-0,065517058926353
-0,0643667919181464
-0,0635305074806535
-0,0630395263502355
-0,0629139331287596
-0,0631609082476963
-0,0637736188484489
-0,0647307617219727
-0,0659968175491999
-0,0675230356428467
-0,0692491247859543
-0,0711055815365934
-0,0730165457316211
-0,0749030369723877
-0,0766863984479792
-0,0782917578011989
-0,0796513103392685
-0,0807072383565734
-0,0814141012621235
-0,0817405632899025
-0,0816703665988737
-0,0812025047111829
-0,0803506011192323
-0,0791415470369894
-0,0776134971963662
-0,0758133602363401
-0,073793948081693
-0,0716109650249009
-0,0693200211671149
-0,0669738465042611
-0,0646198622522271
-0,0622982367104576
-0,0600405164995069
-0,0578688831098347
-0,0557960424197907
-0,0538257140678805
-0,0519536510221073
-0,0501690896010555
-0,0484565082142332
-0,0467975602318626
-0,0451730429249267
-0,0435647700246991
-0,0419572291399098
-0,0403389256917187
-0,0387033403671379
-0,0370494554833714
-0,0353818351128923
-0,0337102724831522
-0,0320490444197653
-0,0304158350539011
-0,0288304087065188
-0,0273131241010627
-0,0258833885876908
-0,0245581518768181
-0,0233505342186967
-0,022268674514963
-0,0213148702112759
-0,0204850638117055
-0,0197687113224617
-0,0191490468146956
-0,0186037355131542
-0,0181058863187531
-0,0176253743606381
-0,0171304059866142
-0,016589243384485
-0,0159719946056272
-0,0152523678550389
-0,0144092871110104
-0,0134282698403831
-0,0123024769641708
-0,0110333601937427
-0,0096308519450861
-0,00811306750439592
-0,00650551678669329
-0,00483985249370742
-0,0031522110072556
-0,00148123009005657
0,000134148534310784
0,001656965190707
0,00305447903248278
0,00430021487059133
0,0053756854855943
0,00627167024556302
0,00698895484100587
0,00753846835465393
0,00794079085306915
0,00822504484970098
0,00842722464623188
0,00858805583720297
0,00875051035480971
0,00895712779402709
0,00924730942534247
0,00965475585502278
0,0102052122607224
0,0109146668296272
0,0117881196179496
0,012819002579707
0,0139892895206304
0,0152702902967508
0,0166240798803776
0,0180054731211205
0,0193644228998139
0,0206486951829834
0,0218066607301728
0,0227900405267487
0,0235564502570101
0,0240716071766937
0,0243110888839957
0,0242615653825951
0,0239214608530745
0,0233010369744155
0,0224219228984736
0,0213161458682369
0,0200247392900112
0,0185960208224739
0,0170836413324691
0,0155445067291505
0,0140366695887146
0,0126172774239454
0,0113406510121777
0,010256551020499
0,00940867577798675
0,00883341874527152
0,00855890193786306
0,0086042917347626
0,00897939625251596
0,00968453843088549
0,0107106955620066
0,0120398934514689
0,0136458409079388
0,0154947871446377
0,0175465805051556
0,0197559015048423
0,0220736367121383
0,0244483529817397
0,0268278247149077
0,0291605611126848
0,0313972767203041
0,0334922477699639
0,035404499550552
0,0370987765245897
0,0385462570619284
0,0397249879793098
0,0406200296379646
0,0412233189904758
0,0415332743449697
0,0415541803053733
0,041295403119904
0,0407704945043917
0,0399962452529133
0,0389917484438336
0,0377775260341527
0,0363747628253977
0,0348046792415439
0,0330880603610482
0,0312449445717873
0,0292944623896981
0,0272548054866144
0,0251432986036172
0,0229765431596002
0,0207706009527736
0,0185411889727134
0,0163038612186391
0,0140741596101275
0,0118677225351284
0,00970034537269781
0,00758799168142619
0,0055467562465993
0,00359278173300989
0,00174212958897767
1,06037197597277E-05
-0,00158647689456365
-0,00303456205083968
-0,00432021603700077
-0,00543152827190722
-0,00635858693532878
-0,00709400606681389
-0,00763348692017491
-0,0079763835457598
-0,00812623188854459
-0,00809119267452498
-0,00788435253125296
-0,00752382653084782
-0,00703260972697502
-0,00643813574840204
-0,00577151708094393
-0,00506646346930925
-0,00435790051118622
-0,00368033797543004
-0,00306606424387446
-0,00254326700794844
-0,00213419838616668
-0,00185351282798611
-0,00170690687571893
-0,00169018021972405
-0,00178881751942087
-0,00197816109430932
-0,00222420766219524
-0,00248502037469612
-0,0027127036106582
-0,0028558457473687
-0,00286229785447238
-0,00268212706776086
-0,00227056483319865
-0,00159076401420353
-0,000616185802895821
0,000667542763010028
0,00226142838786775
0,00415265497257712
0,00631491020748655
0,00870948397612012
0,0112870771568099
0,0139902134495286
0,0167561082319288
0,0195198198469598
0,0222174920242698
0,0247894923402678
0,0271832607778186
0,0293557036824599
0,031275000065039
0,0329217268589156
0,0342892545969599
0,0353834118740049
0,0362214627623853
0,036830483085674
0,0372452564651855
0,0375058373217383
0,0376549440361627
0,0377353505470703
0,0377874387950036
0,0378470582627817
0,0379438137959442
0,038099870711208
0,0383293291922288
0,0386381806275285
0,039024819427261
0,0394810475051957
0,0399934773062307
0,040545214956099
0,0411176892777823
0,0416924859726678
0,0422530495206913
0,0427861279942417
0,0432828570790845
0,0437394076669765
0,0441571544983071
0,0445423591978795
0,044905397201416
0,0452595919977571
0,045619749460272
0,0460005077365079
0,0464146325966187
0,0468713932535582
0,0473751490502807
0,047924263353877
0,0485104384237531
0,0491185355136648
0,0497269100755025
0,0503082550781827
0,0508309087708362
0,051260549293173
0,0515621698269654
0,0517022065428026
0,0516506789720284
0,0513831995701864
0,0508827163325812
0,0501408689213304
0,0491588636872063
0,0479478044631671
0,0465284518754205
0,0449304216120136
0,043190868997921
0,041352740761727
0,0394627027260311
0,0375688724223212
0,0357184969541961
0,0339557181222973
0,0323195588468087
0,0308422479582951
0,0295479757759341
0,0284521423928197
0,027561126494519
0,0268725673156484
0,0263761185475026
0,0260546030493543
0,0258854732022514
0,0258424653319493
0,0258973288737203
0,0260215122819628
0,0261876978021338
0,0263710951577325
0,0265504283991307
0,0267085785384184
0,0268328747775695
0,0269150565882643
0,0269509551279187
0,0269399632912385
0,0268843773122559
0,0267886981115424
0,0266589770972184
0,0265022792111809
0,0263263167985973
0,0261392831728039
0,0259498869072187
0,0257675596622166
0,0256027845717805
0,0254674716169846
0,0253752933239953
0,0253418902360162
0,0253848618345161
0,025523474847595
0,0257780461592704
0,0261689898571513
0,0267155545336273
0,0274343144628537
0,0283375130504456
0,0294313853981346
0,030714605725819
0,032177012227285
0,0337987551826415
0,0355499934695063
0,0373912309296814
0,0392743395559891
0,0411442644588384
0,0429413502141729
0,0446041741658735
0,0460727243328076
0,047291722207648
0,0482138676507651
0,0488027768611858
0,0490353962719966
0,0489037048418293
0,0484155627058343
0,0475946222304638
0,0464792836913829
0,0451207468176667
0,0435802757305414
0,0419258528806446
0,0402284426826533
0,0385581138828066
0,0369802789325015
0,0355522980651693
0,0343206662671748
0,0333189554734413
0,0325666259430514
0,032068754774527
0,0318166614022489
0,031789345171514
0,0319555939395339
0,0322765793918241
0,0327087275384642
0,0332066434024333
0,033725877340405
0,0342253454407582
0,0346692552885121
0,0350284372860624
0,0352810362016108
0,0354125728579492
0,0354154372324669
0,0352879175725061
0,03503290214404
0,0346564087817074
0,0341661015478349
0,0335699438917981
0,0328751152511492
0,0320872855648915
0,0312103029250676
0,0302463072376297
0,0291962410474612
0,0280606911092233
0,0268409638758189
0,0255402770490421
0,0241649391070421
0,0227253896900482
0,0212369853899689
0,0197204365335204
0,0182018289236425
0,0167121977594999
0,0152866563191925
0,0139631166949298
0,012780671348888
0,0117777302736389
0,0109900274129797
0,0104486206040434
0,0101780111842381
0,0101945027423078
0,0105049040087223
0,0111056598410853
0,0119824682346108
0,0131104121758669
0,0144546048888427
0,0159713175514176
0,0176095317028192
0,0193128358333416
0,0210215683332335
0,0226750978702006
0,0242141278201356
0,025582913611172
0,0267312903113046
0,0276164217803245
0,0282042010955075
0,0284702534516203
0,0284005158860724
0,0279913914396156
0,0272494973227015
0,0261910459593274
0,0248409133590487
0,0232314603329394
0,0214011781767377
0,0193932315533992
0,0172539677038839
0,0150314534802336
0,0127740909390358
0,0105293495127402
0,00834263931635141
0,00625633716303742
0,00430896549416984
0,00253451554020304
0,000961900245290462
-0,00038547993384047
-0,00149007442017217
-0,00234043550883787
-0,00293139364329432
-0,0032641548022984
-0,00334631287730706
-0,00319176395744152
-0,00282050537566748
-0,002258300908515
-0,00153619511007949
-0,000689864420446198
0,000241199826005735
0,00121467167384528
0,00218651827550891
0,00311224791203582
0,00394824060972567
0,00465311494001855
0,00518907852897379
0,00552320703435864
0,00562859710726908
0,00548534309875648
0,00508129461578033
0,00441256177649466
0,00348374634605516
0,00230788888841603
0,000906133739176982
-0,000692875788617526
-0,00245385058009725
-0,00433592886073936
-0,00629393579410535
-0,00827979265189203
-0,0102440365524303
-0,0121374103585529
-0,0139124810814388
-0,0155252435984035
-0,0169366644373451
-0,0181141178242652
-0,0190326634950996
-0,0196761135515423
-0,0200378347681889
-0,0201212342125845
-0,0199398807789609
-0,0195172240972666
-0,0188858857003179
-0,0180865153990699
-0,0171662280049385
-0,0161766607950452
-0,0151717188623107
-0,0142051016526632
-0,0133277273017376
-0,0125851894324971
-0,0120153916631571
-0,0116465064216197
-0,0114953955868537
-0,011566610673036
-0,0118520602928896
-0,0123313940343581
-0,0129731070687719
-0,0137363219021767
-0,0145731563162632
-0,0154315434810454
-0,0162583351316519
-0,0170024946916672
-0,0176181766544899
-0,0180674927086122
-0,0183227840823024
-0,0183682522832226
-0,0182008444431367
-0,017830341543622
-0,0172786538194808
-0,0165783831507921
-0,0157707628426112
-0,0149031267897849
-0,014026089376244
-0,0131906323335147
-0,0124452942261528
-0,0118336426257542
-0,0113921800498747
-0,0111487951932277
-0,0111218245323872
-0,0113197402370552
-0,0117414327687356
-0,0123770146207899
-0,0132090387179804
-0,0142140034680502
-0,0153640075862631
-0,0166284216133139
-0,0179754582958581
-0,0193735484445789
-0,0207924594530834
-0,022204126837154
-0,0235832013209603
-0,0249073418253646
-0,0261573055264833
-0,0273168981286738
-0,0283728499341904
-0,0293146765522382
-0,0301345686293172
-0,0308273351037947
-0,0313904020750342
-0,0318238476098324
-0,032130434705512
-0,0323155927900199
-0,0323872943686486
-0,0323557785666846
-0,0322330871110358
-0,0320323993886958
-0,0317671793492212
-0,0314501751535905
-0,0310923392482294
-0,0307017585361361
-0,03028269849648
-0,0298348691489011
-0,0293530133440266
-0,0288268988588807
-0,0282417662967746
-0,0275792471332626
-0,026818723679579
-0,0259390592368409
-0,0249205865329107
-0,0237472098320234
-0,0224084544914301
-0,0209012898892162
-0,0192315590559829
-0,0174148710745672
-0,0154768490081532
-0,0134526740367101
-0,0113859217852743
-0,00932674480572274
-0,00732951082309626
-0,00545005465467039
-0,00374273822721436
-0,00225753436506268
-0,00103735374559309
-0,00011581995021307
0,000484334307409289
0,000752123478095957
0,000688349747074794
0,000304824155663155
-0,00037716975195914
-0,0013290464170075
-0,00251754770613379
-0,00390761815204429
-0,00546529205447031
-0,00716035667582283
-0,00896857318309679
-0,0108732722977054
-0,0128661919966153
-0,0149474860122485
-0,0171248993490369
-0,0194121751493538
-0,0218268205202729
-0,0243874123330266
-0,0271106632832721
-0,0300084905480588
-0,0330853325069728
-0,0363359429705864
-0,0397438584841296
-0,0432806851983883
-0,0469062913348007
-0,0505699240443536
-0,0542122005828857
-0,0577678583493238
-0,0611690912788954
-0,0643492555099431
-0,0672466982725176
-0,0698084525591897
-0,0719935469582782
-0,0737757043582382
-0,0751452431560888
-0,0761100470881641
-0,0766955310366187
-0,076943595770355
-0,0769106300216483
-0,0766646791042186
-0,0762819514743099
-0,0758428749042579
-0,0754279398549293
-0,0751135778508847
-0,0749683168659296
-0,0750494347280622
-0,0754002970861816
-0,0760485211496698
-0,0770050534054189
-0,0782641924315998
-0,0798045304872045
-0,0815907333706869
-0,0835760304181253
-0,085705248156035
-0,0879181941465011
-0,0901531832112696
-0,092350496949791
-0,0944555788883568
-0,0964217905518947
-0,0982125864136561
-0,0998030056801155
-0,101180423504708
-0,102344550557917
-0,103306715042709
-0,104088502473363
-0,104719863483025
-0,105236826685528
-0,105678970858394
-0,106086817796961
-0,106499304085808
-0,106951477402165
-0,10747254201527
-0,108084350614146
-0,108800407498942
-0,109625413830031
-0,110555351325451
-0,111578068745044
-0,112674307654063
-0,113819081872177
-0,114983309765354
-0,116135590680254
-0,117244016359862
-0,118277914551579
-0,119209434286051
-0,120014899082916
-0,120675874081842
-0,121179914118689
-0,121520980475307
-0,121699532971439
-0,121722320122216
-0,121601902468955
-0,121355952561804
-0,121006379483715
-0,120578326669515
-0,120099089828205
-0,119596997915002
-0,11910029530124
-0,118636058466413
-0,118229176455019
-0,117901421462437
-0,117670634415416
-0,117550050122643
-0,117547786994295
-0,117666526708644
-0,117903408674031
-0,118250161758086
-0,118693490728088
-0,119215726602822
-0,119795738483633
-0,120410089586874
-0,121034402909049
-0,121644883343547
-0,122219924691907
-0,122741713665982
-0,123197730575447
-0,123582039722969
-0,123896263092309
-0,124150139761619
-0,124361590938521
-0,124556236287827
-0,124766340089175
-0,125029203865744
-0,125385062846611
-0,125874583971585
-0,126536099792386
-0,127402742368485
-0,12849966114554
-0,129841516534628
-0,131430435030697
-0,13325459175046
-0,135287552944321
-0,137488466155287
-0,139803132126831
-0,142165933983999
-0,144502539944217
-0,146733240342442
-0,148776732476222
-0,150554131593649
-0,151992966278266
-0,1530309134588
-0,15361904287725
-0,153724372287398
-0,153331580708535
-0,152443784349988
-0,151082343945513
-0,149285738195016
-0,147107600613122
-0,144614071331698
-0,14188065699288
-0,138988817494975
-0,136022506090706
-0,133064878732004
-0,130195360789372
-0,127487216997006
-0,125005717652757
-0,122806935660866
-0,12093715039056
-0,119432781063048
-0,118320729511138
-0,117618983813603
-0,11733732325884
-0,117477972490926
-0,118036077845568
-0,118999919325763
-0,120350823289621
-0,122062798268931
-0,124101973159948
-0,126425966753788
-0,128983354024708
-0,13171341253562
-0,134546328131267
-0,137404011130849
-0,140201623224302
-0,142849844401611
-0,14525782394974
-0,147336667354248
-0,149003220676254
-0,150183835290465
-0,150817738105535
-0,150859603977672
-0,15028093428756
-0,149069892319087
-0,147229332484482
-0,144772883351325
-0,141719096913253
-0,138083848352199
-0,133871348695617
-0,129064302460569
-0,123613888232872
-0,117430347310389
-0,110375021311273
-0,102254674396755
-0,0928188642983179
-0,0817609883920244
-0,068723431969122
-0,0533069961718492
-0,0350844983254253
-0,0136181369346573
0,0115200806350264
0,0407258150692932
0,074338958341514
0,112620609502944
0,155731849133372
0,203715664956534
0,256483252003901
0,313805691334725
0,375311714086994
0,440491901393947
0,508709279500637
0,57921587075362
0,651174383863883
0,723683898969838
0,795808149435692
0,86660484271013
0,935154409824398
1,0005866320768
1,06210376046065
1,11899900636485
1,17066962143025
1,21662417447708
1,25648404441274
1,28997954850227
1,31694148469828
1,33728915749337
1,3510161571592
1,35817525770419
1,35886378342107
1,35321067044026
1,34136623000246
1,32349532362666
1,29977431259549
1,27039177468824
1,23555262090429
1,19548492388784
1,15044851417626
1,1007442307272
1,046722641478
0,988791082554451
0,927417997016517
0,863133773317872
0,796527570455168
0,728239946289375
0,658951449793475
0,589367668379201
0,520201511101226
0,45215373451668
0,385892863226441
0,322035711688911
0,26112967560306
0,203637835541436
0,149927715099566
0,100264278859257
0,0548074640609747
0,0136142381110016
-0,0233551142963096
-0,0562270240052658
-0,0852017405277072
-0,110538391705587
-0,132538950877756
-0,151532056038284
-0,167857553580543
-0,181852512660378
-0,193839289452306
-0,204116030169801
-0,212949804828286
-0,22057237640604
-0,227178445984818
-0,232926083876424
-0,237938965870778
-0,242309984504298
-0,246105795594698
-0,249371884782202
-0,252137789489273
-0,254422179207462
-0,256237571681517
-0,257594535473925
-0,258505293291865
-0,258986690354911
-0,259062525548222
-0,258765260300196
-0,258137123511515
-0,257230624615717
-0,256108476189374
-0,254842917909467
-0,253514429989403
-0,252209830215064
-0,251019766369772
-0,25003564521172
-0,249346078324799
-0,249032970400742
-0,24916742183569
-0,249805659191455
-0,250985238344377
-0,252721780870207
-0,255006500593349
-0,257804752150582
-0,261055786898809
-0,264673835659789
-0,268550556835626
-0,272558798151175
-0,276557527736777
-0,280397702956853
-0,283928770715771
-0,287005437462913
-0,28949431588739
-0,291280051509886
-0,292270557052955
-0,292401034258793
-0,291636538200452
-0,289972932667212
-0,28743618998772
-0,284080096915188
-0,279982531907224
-0,275240570667558
-0,269964749540893
-0,264272865189156
-0,258283710656812
-0,252111141373639
-0,245858830837334
-0,239616017712424
-0,233454468623469
-0,227426790127005
-0,221566126091746
-0,215887180218619
-0,210388414602396
-0,205055200210498
-0,199863638860423
-0,194784742111338
-0,189788642090378
-0,184848522507124
-0,17994399312012
-0,175063684307093
-0,170206905583138
-0,165384287477603
-0,160617404324172
-0,155937450461687
-0,151383108814452
-0,146997804337258
-0,142826572084116
-0,138912788653444
-0,135295015923762
-0,132004188113722
-0,129061339385472
-0,126476022579927
-0,124245514213395
-0,122354840931536
-0,120777602757659
-0,119477512987085
-0,118410527254161
-0,117527398132269
-0,116776468707059
-0,116106509873302
-0,11546941157105
-0,114822556727081
-0,11413073630802
-0,1133675019564
-0,112515896038029
-0,111568544228987
-0,110527139695272
-0,109401387466634
-0,108207510208234
-0,106966440374306
-0,105701837518121
-0,10443807296454
-0,103198317505142
-0,10200285235436
-0,100867700916867
-0,0998036510486391
-0,0988157067185051
-0,0979029766386749
-0,0970589777329407
-0,0962723052186829
-0,0955276000897954
-0,0948067299998734
-0,0940900914756049
-0,0933579400646365
-0,0925916599919554
-0,0917748953135907
-0,0908944792534794
-0,0899411160597094
-0,0889097889071118
-0,0877998867109797
-0,0866150609701636
-0,0853628398706669
-0,0840540400491006
-0,0827020261068249
-0,0813218739218202
-0,0799294959948371
-0,0785407856839395
-0,0771708325765293
-0,0758332539033994
-0,0745396773589967
-0,0732993995564632
-0,0721192322385707
-0,0710035359028461
-0,0699544282893469
-0,0689721438295128
-0,068055510244299
-0,0672025005554642
-0,0664108133363837
-0,0656784315103061
-0,0650041107173998
-0,0643877523802458
-0,0638306240785737
-0,0633354004531875
-0,0629060110847578
-0,0625472968898318
-0,0622644925628638
-0,0620625682950995
-0,0619454781513136
-0,061915373797589
-0,0619718495761041
-0,062111287269298
-0,0623263656912471
-0,0626057913123638
-0,0629342918238485
-0,0632928957068764
-0,0636594988436039
-0,0640096957020825
-0,0643178296567405
-0,0645581966133098
-0,0647063202968845
-0,0647402079572927
-0,0646414930461115
-0,0643963771296283
-0,0639962967630597
-0,0634382612951328
-0,0627248330255577
-0,0618637495836258
-0,0608672173480356
-0,0597509315003041
-0,0585329004177795
-0,0572321674339498
-0,055867530082425
-0,0544563550632022
-0,0530135765557106
-0,0515509471910844
-0,0500765868371713
-0,0485948467608599
-0,0471064785001264
-0,0456090707010446
-0,0440976958280647
-0,0425656940651644
-0,0410055151606356
-0,0394095408275043
-0,0377708200221434
-0,0360836655787864
-0,0343440811447827
-0,0325500095697523
-0,0307014151039546
-0,0288002294224767
-0,0268502035116745
-0,0248567125118423
-0,0228265582371125
-0,0207678048454987
-0,0186896684158076
-0,0166024632018359
-0,0145175887268507
-0,0124475254873984
-0,010405795450409
-0,00840683884942217
-0,00646576223146108
-0,00459792450596658
-0,00281834700674984
-0,00114095833319943
0,000422287800288769
0,00186235671832153
0,00317405146383366
0,00435680366276744
0,00541522968151639
0,00635935267052505
0,00720441098430937
0,00797020484389956
0,00867997355203798
0,00935884155933409
0,0100319187312879
0,0107221834297446
0,0114483116361421
0,0122226371110558
0,0130494332912241
0,0139236955970745
0,0148305730291819
0,0157455521734888
0,0166354384663644
0,0174601136888129
0,018174980969672
0,0187339453679641
0,0190927253984403
0,0192122539447771
0,0190619097614987
0,0186223253672283
0,017887543702155
0,0168663425619248
0,0155826086595722
0,0140747168366509
0,0123939479499838
0,0106020543950678
0,00876814837697661
0,00696513906096701
0,00526597620241022
0,0037399671738471
0,00244942099482651
0,00144683862552265
0,000772816983590581
0,000454769988775418
0,000506499642130424
0,000928580288823212
0,00170945620599257
0,00282710203501333
0,00425106152735886
0,00594466502267189
0,00786723050906339
0,00997607559083343
0,012228205028711
0,0145815861928882
0,0169959773893143
0,0194333259671078
0,021857799024844
0,024235544992261
0,026534306158033
0,0287230088166363
0,0307714491685342
0,0326501712049151
0,0343306005694918
0,0357854599526547
0,0369894514534115
0,0379201541612141
0,0385590549848822
0,0388926106397471
0,0389132305687744
0,0386200748880773
0,0380195773095434
0,0371256281976287
0,0359593843765142
0,0345487062715527
0,0329272556838112
0,031133315385524
0,0292084120636606
0,027195835043267
0,0251391441488489
0,0230807515275976
0,0210606459675393
0,0191153067027155
0,0172768299496526
0,0155722686380771
0,0140231668743131
0,012645257897854
0,0114482890056853
0,0104359394792787
0,00960580709294956
0,00894945361381759
0,00845251719147228
0,00809491676990089
0,0078511875267298
0,00769099420610235
0,00757986900515043
0,00748021142588274
0,00735256929293219
0,00715719433890235
0,00685583475666461
0,00641369418778
0,00580145556270483
0,00499724287193198
0,00398837790832419
0,00277278499950145
0,00135990644329198
-0,00022898497370176
-0,00196115346378898
-0,00379347804140528
-0,00567421760797188
-0,00754538506347364
-0,00934560006812921
-0,0110132460623198
-0,0124897256258845
-0,0137225925910414
-0,0146683415262447
-0,0152946556439749
-0,0155819515719017
-0,0155241108559563
-0,0151283493345942
-0,0144142414028634
-0,0134119810719024
-0,0121600199437435
-0,0107022687877097
-0,0090850802857394
-0,00735424315196861
-0,00555221130209973
-0,00371576682394793
-0,00187427462594949
-4,86336278847913E-05
0,00174903095694479
0,00351495190417309
0,00525265713640904
0,00697138615461813
0,00868414955423202
0,0104056173236075
0,0121500266104052
0,013929287908218
0,0157514418854162
0,0176195803009298
0,0195312976443047
0,0214786897937037
0,023448866822426
0,0254249034531968
0,0273871162286115
0,0293145339145809
0,0311864183829087
0,0329836974079196
0,0346901873062535
0,0362935099643643
0,0377856424735498
0,0391630748069047
0,0404265880051841
0,0415806987742917
0,042632843255662
0,0435923909290867
0,0444695879610859
0,0452745276575312
0,046016234919258
0,0467019333492276
0,0473365403280496
0,0479224096096564
0,0484593156110533
0,0489446511338713
0,0493737929134576
0,0497405785622228
0,0500378349160041
0,050257901310294
0,0503931010790054
0,0504361290224503
0,0503803397412881
0,0502199393957526
0,0499500993870142
0,0495670227495214
0,0490680012023659
0,0484515019340762
0,047717318146406
0,046866806677103
0,0459032208552964
0,0448321288576643
0,0436618892783471
0,0424041386246291
0,041074232113188
0,0396915712465556
0,0382797505017858
0,0368664616902093
0,0354831080436317
0,0341641000532713
0,0329458299729248
0,0318653497027422
0,0309588050142806
0,0302597052396604
0,0297971291070878
0,029593982218
0,0296654280696993
0,0300176115655946
0,0306467814457607
0,0315388966101768
0,0326697723209421
0,0340057877635722
0,0355051390041698
0,0371195837831329
0,0387965897441214
0,0404817682593274
0,0421214542919701
0,0436652803842946
0,0450685908671396
0,046294550918641
0,0473158235227579
0,0481157143734276
0,0486887183270043
0,0490404387621074
0,0491868904647481
0,0491532347328993
0,0489720297381672
0,0486811075950819
0,0483212103368231
0,047933528977196
0,04755729251079
0,0472275472511688
0,0469732520187079
0,0468157926110397
0,0467679913531432
0,0468336561771243
0,0470076806801924
0,0472766739143798
0,0476200681878317
0,0480116265565758
0,0484212503326678
0,0488169718602393
0,0491670096715826
0,049441762183616
0,049615622249901
0,0496685076416093
0,0495870211340321
0,0493651772096929
0,0490046591522633
0,0485145989903074
0,0479109017297699
0,0472151629405938
0,0464532534003224
0,0456536646611249
0,0448457238173517
0,0440577934278785
0,0433155729028053
0,0426406105398334
0,0420491211034011
0,0415511832076985
0,0411503650076524
0,0408437975188187
0,0406226841754996
0,0404732051342155
0,0403777474507945
0,0403163695887931
0,0402683924607252
0,0402140005974212
0,0401357368191877
0,0400197820262722
0,0398569279055942
0,0396431733113597
0,0393799031402864
0,0390736396088922
0,0387353876113924
0,0383796259037812
0,0380230219542765
0,0376829684505091
0,0373760521686073
0,0371165702557299
0,0369152046846512
0,0367779531157849
0,0367053946528714
0,0366923436139863
0,0367279154126759
0,036795998238469
0,0368760947393995
0,0369444715663932
0,0369755333902006
0,0369433233337517
0,0368230446951476
0,0365924997112032
0,0362333497193781
0,0357321165721818
0,0350808661996953
0,0342775400652698
0,033325926895405
0,0322352933918307
0,0310197166059042
0,0296971804505986
0,0282885130017399
0,0268162488177268
0,0253035010489868
0,0237729217961746
0,0222458166895338
0,020741462262947
0,0192766539724514
0,0178654905670267
0,0165193789545622
0,0152472246259855
0,0140557578339448
0,0129499363396504
0,0119333624903053
0,0110086558528709
0,0101777322362754
0,00944195468869906
0,00880214045695265
0,00825842808305974
0,00781002866967264
0,00745490279075367
0,00718941761577859
0,00700804601481026
0,00690316972549226
0,00686504173785084
0,00688194928904714
0,00694059933775646
0,00702672484592036
0,00712588485715841
0,00722440673197907
0,00731039757200632
0,0073747361982732
0,00741194902010503
0,00742087402549681
0,00740502745382891
0,00737260710407002
0,00733609339203866
0,00731144215885755
0,00731689908038504
0,00737150123588573
0,00749336367076061
0,00769787452495226
0,00799593887091792
0,00839241684801841
0,00888489504361321
0,0094629113607824
0,010107723967874
0,010792676470724
0,0114841671199573
0,0121431832619495
0,0127273171504143
0,0131931394988372
0,0134987761598995
0,0136065137917278
0,013485254125738
0,0131126441209781
0,0124767304524267
0,0115770197479886
0,0104248681902753
0,00904317210256705
0,00746538107540577
0,00573390305728265
0,00389801277285952
0,00201140760630163
0,000129576169696525
-0,00169284725809511
-0,00340457474529213
-0,00495985367745307
-0,00632023216539062
-0,00745581744977946
-0,00834598566429696
-0,00897954421094073
-0,00935438833649713
-0,00947672795341595
-0,00935998666854648
-0,00902349048524531
-0,00849106791478877
-0,00778967643004714
-0,00694815351104412
-0,00599616603482127
-0,00496340212059472
-0,00387901790479781
-0,00277132122672191
-0,00166764788192824
-0,000594366432487888
0,000423063670571811
0,00136005773596884
0,00219296485558717
0,00289927400048622
0,00345799838202617
0,00385024256997763
0,00405992879436748
0,00407463243571621
0,00388645469338678
0,00349284527488864
0,00289728135675086
0,00210971198655769
0,00114668953674826
3,11308489825421E-05
-0,00120832135755914
-0,00253833387894833
-0,0039222782985167
-0,00532191670881212
-0,00669928037557259
-0,00801862278459785
-0,00924831654238242
-0,0103625619012927
-0,0113427836516675
-0,012178612164914
-0,0128683720750857
-0,0134190362852486
-0,0138456409529502
-0,014170195849089
-0,0144201609010581
-0,0146265909796695
-0,014822074632276
-0,0150386067292975
-0,0153055388531719
-0,0156477445368122
-0,0160841198020944
-0,0166265142607963
-0,017279156355757
-0,0180386005999402
-0,0188941876545545
-0,0198289724874432
-0,0208210442594329
-0,0218451361505222
-0,0228744057503422
-0,0238822579453586
-0,0248440827891484
-0,0257387903864108
-0,026550042378084
-0,027267103783324
-0,0278852678135381
-0,0284058377008113
-0,0288356813253159
-0,0291864042262645
-0,0294732124539042
-0,0297135568859311
-0,0299256638481304
-0,0301270623107834
-0,03033321534076
-0,0305563531955289
-0,0308045882620313
-0,0310813693356442
-0,0313853061696818
-0,0317103668315298
-0,032046422286065
-0,0323800869056743
-0,0326957822421145
-0,0329769360021556
-0,0332072199453108
-0,0333717299852499
-0,0334580191369062
-0,033456908485532
-0,0333630218121427
-0,0331750141407128
-0,0328954911359744
-0,0325306426067662
-0,032089637023162
-0,0315838427573257
-0,0310259540016829
-0,030429103849469
-0,02980604341934
-0,0291684545676104
-0,0285264457774661
-0,0278882581286025
-0,0272601831813601
-0,0266466698648641
-0,0260505757652415
-0,0254735020291391
-0,0249161424280478
-0,0243785771459111
-0,0238604508696611
-0,0233609920578147
-0,0228788541629221
-0,0224117875812421
-0,0219561800446692
-0,0215065296662255
-0,0210549355045796
-0,0205907024292806
-0,0201001580771431
-0,0195667687539698
-0,0189716184312304
-0,0182942820316304
-0,0175140837566627
-0,0166116870549042
-0,0155709194604445
-0,01438069763138
-0,013036890024424
-0,0115439404858583
-0,00991607823151353
-0,00817795931990728
-0,00636462113546964
-0,00452068224927405
-0,00269878126332903
-0,00095731463361904
0,000642401129567956
0,00203935940308748
0,00317625726434987
0,00400279838015334
0,00447864530893877
0,00457577985100288
0,00428007079470424
0,00359190865823628
0,00252584189851021
0,00110923210657336
-0,000619970558805489
-0,00261615376141946
-0,00482943093911919
-0,00720920869952934
-0,00970763444655665
-0,0122826347772476
-0,0149002912309737
-0,0175363594061003
-0,0201768149423759
-0,0228173983967676
-0,0254622224168637
-0,0281215902715285
-0,0308092467272433
-0,0335393335687641
-0,0363233479531617
-0,039167399730458
-0,0420700340959296
-0,0450208313001667
-0,047999920874045
-0,0509784610378026
-0,0539200429711345
-0,0567828930861295
-0,0595226725697921
-0,0620956192180623
-0,0644617469022565
-0,0665878155520063
-0,0684498091496264
-0,0700347082762779
-0,0713414121477486
-0,0723807459536742
-0,0731745747084448
-0,0737541263330534
-0,0741576965298499
-0,0744279595482164
-0,0746091375251763
-0,0747442843330392
-0,0748729180004829
-0,0750291914718529
-0,0752407296289756
-0,0755281876799078
-0,0759055097879118
-0,0763807950241601
-0,0769576175416142
-0,0776366053801347
-0,0784170615313743
-0,0792984137511459
-0,0802813054888718
-0,08136818629319
-0,0825633212324515
-0,0838722086887126
-0,0853004670729915
-0,0868523160776632
-0,0885288302059864
-0,0903261760011339
-0,0922340560112021
-0,0942345706095856
-0,0963016743650474
-0,0984013498425436
-0,100492553775188
-0,102528915002785
-0,104461087834789
-0,106239596061428
-0,10781794841296
-0,109155771407164
-0,1102216937801
-0,110995729516922
-0,111470942941802
-0,111654236228788
-0,111566171942858
-0,111239824264328
-0,110718734963771
-0,110054126515174
-0,109301587984368
-0,108517493808462
-0,107755437355661
-0,107062958331745
-0,106478816138515
-0,106031012755405
-0,105735703197643
-0,105597055098392
-0,105608038449252
-0,105752049182462
-0,106005202915808
-0,106339083538169
-0,106723699623634
-0,107130392259053
-0,107534450961987
-0,107917228220263
-0,108267594111712
-0,108582635440081
-0,108867572829225
-0,109134937876078
-0,109403114683902
-0,109694400567835
-0,110032775375376
-0,110441585328302
-0,110941344815136
-0,111547839320926
-0,112270677293904
-0,113112392178683
-0,114068142897739
-0,115126006815856
-0,116267808699156
-0,117470386708321
-0,11870716540986
-0,119949888242936
-0,121170358565757
-0,12234204862
-0,123441457674221
-0,12444913131753
-0,12535028998949
-0,126135052609797
-0,126798277057112
-0,127339070205197
-0,127760043851301
-0,128066407766115
-0,12826499675447
-0,128363325453135
-0,128368753810947
-0,128287829540321
-0,12812585337344
-0,127886690853702
-0,12757283259156
-0,127185685096571
-0,126726057625883
-0,126194797652368
-0,125593518818834
-0,12492536043263
-0,124195716276944
-0,123412872299915
-0,122588497061891
-0,121737935365047
-0,120880264037473
-0,120038079391221
-0,119236998528123
-0,118504871469684
-0,117870718068173
-0,117363422465245
-0,117010237850277
-0,116835174332822
-0,116857361359114
-0,117089491344597
-0,117536461081768
-0,118194329903448
-0,119049706871253
-0,120079662291373
-0,121252231299132
-0,12252753994811
-0,123859538989186
-0,125198280422082
-0,12649262087608
-0,127693188565821
-0,128755411874161
-0,129642382223522
-0,130327315655393
-0,130795389213854
-0,131044760726065
-0,131086632964341
-0,130944292460133
-0,130651134361473
-0,130247771104499
-0,129778406513104
-0,129286730026763
-0,128811640267474
-0,128383136366145
-0,128018714674711
-0,127720575555309
-0,127473880711641
-0,127246210102762
-0,126988255920403
-0,126635669019733
-0,126111852042205
-0,12533138542826
-0,124203689441599
-0,122636477537729
-0,12053855146603
-0,11782153038213
-0,114400194608029
-0,110191254620357
-0,105110517966123
-0,0990686079692701
-0,0919655721484069
-0,0836848877207637
-0,0740875087821537
-0,0630066889702662
-0,0502443420261158
-0,0355696628931036
-0,0187206216507593
0,000591234073394149
0,022672465140317
0,0478359845571339
0,0763862190687148
0,108601835302898
0,144716933741013
0,184901817183556
0,229244570155179
0,277734726814742
0,330250249056523
0,386548883345844
0,446264722107062
0,50891047903376
0,573885619924029
0,640490099309783
0,707943068690814
0,775405575593221
0,842005992426964
0,906866724096064
0,969130660152069
1,02798586922039
1,0826871790418
1,13257353387172
1,17708035242342
1,21574649710418
1,24821587702214
1,27423410893183
1,29364101842654
1,30636004833603
1,31238582884759
1,31177123905265
1,30461524702011
1,29105265987256
1,27124666157928
1,24538468755712
1,21367781176502
1,17636343759063
1,1337107232802
1,08602786839479
1,03367016729085
0,977047618593319
0,916630876654131
0,852954442200016
0,786616204886712
0,718272750991125
0,648630208367732
0,578430786277185
0,508435545995903
0,43940427617819
0,372073615753313
0,307134743860001
0,245212026545907
0,186843968665255
0,132467671318935
0,0824077540434395
0,0368703883539577
-0,00405726783130276
-0,0404023167246806
-0,0722964851587285
-0,0999623549307486
-0,123696450176693
-0,143850331852023
-0,160810915130167
-0,174981197491237
-0,186762470839307
-0,196538904616994
-0,204665148137568
-0,211457332288987
-0,217187577348178
-0,222081857766714
-0,226320856089164
-0,230043271689528
-0,233350944784114
-0,23631511525756
-0,238983155951505
-0,241385192867702
-0,243540137562437
-0,245460794826513
-0,247157855397102
-0,248642723770846
-0,249929251979463
-0,251034541842324
-0,251979034951919
-0,252786130225036
-0,253481555927542
-0,254092682927934
-0,254647907206522
-0,255176162460306
-0,255706558095701
-0,25626808318513
-0,256889280085546
-0,257597776776073
-0,258419575794349
-0,259378028107802
-0,260492467775524
-0,261776541188386
-0,263236325087749
-0,264868382300185
-0,266657945650068
-0,268577442849479
-0,270585574530815
-0,272627132759197
-0,274633699886557
-0,276525301479973
-0,278213008410742
-0,279602399550551
-0,280597716035302
-0,281106468641424
-0,281044208441504
-0,280339142669431
-0,278936275729329
-0,276800779985657
-0,273920350443201
-0,270306367428135
-0,265993775931203
-0,261039682006863
-0,255520757905546
-0,249529630763192
-0,243170498070377
-0,236554261549264
-0,229793496161073
-0,222997571428994
-0,216268219075607
-0,209695796843806
-0,203356437803037
-0,197310202977813
-0,191600278975828
-0,18625318760657
-0,181279907077881
-0,176677748916794
-0,172432794853877
-0,16852267547586
-0,164919467980516
-0,161592502768608
-0,158510895656803
-0,155645660823443
-0,152971305361037
-0,150466855285752
-0,148116311031616
-0,145908574137522
-0,143836923130876
-0,141898143352336
-0,140091431506778
-0,138417200823626
-0,136875907478496
-0,135467004692059
-0,13418810962802
-0,13303444204403
-0,131998565054366
-0,131070429704129
-0,130237698482235
-0,129486300268014
-0,128801151953383
-0,128166970999951
-0,127569098959677
-0,126994258441107
-0,126431174616074
-0,125871006247856
-0,125307549163621
-0,124737195587567
-0,124158654258054
-0,123572457097757
-0,122980296825949
-0,122384254908139
-0,121785989484744
-0,121185957561541
-0,120582744434541
-0,119972566031223
-0,119348997084274
-0,118702960713103
-0,118022994355201
-0,117295784601575
-0,116506941140379
-0,115641959430388
-0,114687304637299
-0,113631537193653
-0,112466394192205
-0,111187741264251
-0,109796316770508
-0,108298203514429
-0,106704981833188
-0,105033540363658
-0,103305545279589
-0,101546593368724
-0,0997850970528047
-0,0980509684960393
-0,0963741838479083
-0,0947833163648573
-0,0933041281482784
-0,0919583045872752
-0,0907624039421577
-0,0897270779574561
-0,0888565994672024
-0,0881487113994646
-0,0875947902067292
-0,0871802972842781
-0,0868854758416415
-0,0866862390773594
-0,086555188970213
-0,0864627036999742
-0,0863780352375128
-0,0862703662380599
-0,0861097858540395
-0,0858681561932547
-0,0855198534222715
-0,0850423787644734
-0,0844168437159542
-0,0836283400550015
-0,0826662082125389
-0,081524217483517
-0,0802006686881029
-0,0786984251534744
-0,0770248720992397
-0,0751917988652764
-0,0732151938348912
-0,0711149393761837
-0,0689143941180265
-0,0666398528609066
-0,0643198801481147
-0,0619845217130146
-0,0596644078226908
-0,0573897730770474
-0,0551894272885756
-0,0530897206810067
-0,0511135526380028
-0,0492794759419316
-0,0476009472713358
-0,0460857695676632
-0,0447357629203191
-0,0435466884891493
-0,0425084354844027
-0,0416054655382395
-0,0408174931336827
-0,0401203663269806
-0,0394871000115086
-0,0388890053213863
-0,0382968541536115
-0,0376820174867031
-0,0370175202092928
-0,0362789630277017
-0,0354452731146397
-0,0344992583686721
-0,0334279544659082
-0,0322227679731939
-0,0308794316385894
-0,0293977983991896
-0,0277815080573705
-0,0260375643104245
-0,0241758599148738
-0,0222086842677973
-0,0201502413201391
-0,0180161971250409
-0,0158232666830845
-0,0135888400355406
-0,0113306390428682
-0,00906638984781688
-0,00681349260467308
-0,00458867000972674
-0,00240757976251982
-0,000284383000306828
0,00176872961849067
0,00374204112768701
0,00562881578325132
0,00742577487494797
0,00913349598418383
0,0107566855670169
0,0123042741136737
0,0137892877217903
0,0152284600446777
0,0166415638715449
0,0180504612708722
0,0194778939005299
0,0209460591089564
0,0224750406686151
0,0240811833976065
0,0257755163382157
0,0275623378470665
0,0294380764741999
0,031390533136105
0,0333985926810716
0,0354324672668394
0,0374545013611296
0,039420530810869
0,0412817489008613
0,0429869936246017
0,0444853356085079
0,0457288182039504
0,0466751827075143
0,0472904044318065
0,047550870474785
0,0474450477020296
0,046974518805334
0,046154303515715
0,0450124284921388
0,0435887597631152
0,041933162131899
0,0401030968702184
0,038160808646343
0,0361702818315675
0,034194162723619
0,0322908463844268
0,0305119143932965
0,0289000836989939
0,0274877888049209
0,0262964726127192
0,0253366089709419
0,0246084263290763
0,0241032510711788
0,0238053449999018
0,0236940774805373
0,0237462515306079
0,0239383962357275
0,0242488456895157
0,0246594465056724
0,0251567699003423
0,0257327476258369
0,026384700062113
0,0271147755740195
0,0279288686865832
0,0288351268733022
0,0298421884117809
0,0309573143145041
0,03218458424658
0,0335233191833978
0,0349668730698158
0,0365019037343662
0,0381081925398115
0,0397590361208489
0,041422185949155
0,0430612662747795
0,0446375619536522
0,0461120379113934
0,047447433923973
0,0486102733630173
0,0495726328710214
0,0503135407597275
0,0508199034109596
0,0510868983332166
0,0511178164139462
0,0509233805603831
0,0505206095085759
0,0499313306506399
0,049180471306953
0,0482942718997361
0,0472985658711038
0,0462172599991259
0,0450711261184714
0,0438769833361043
0,0426473116163948
0,0413902966530686
0,0401102660243919
0,0388084414371033
0,0374839046893981
0,0361346582879297
0,0347586570474902
0,0333546948516529
0,0319230502940929
0,0304658242568397
0,0289869387617857
0,0274918060199219
0,0259867156071483
0,0244780220918385
0,0229712416325426
0,0214701811940111
0,0199762262018191
0,018487901074539
0,0170007927707271
0,0155078923036463
0,014000366177542
0,0124687228886901
0,0109042935226593
0,00930090468797561
0,00765659078214782
0,00597517445601743
0,00426754152027192
0,0025524504255158
0,000856746401534012
-0,000785105670203426
-0,00233220092646913
-0,00373905721669167
-0,0049580695446486
-0,0059424077883195
-0,00664916185374285
-0,00704250541642214
-0,00709663420451827
-0,00679823933415051
-0,00614830082001383
-0,00516302956016422
-0,00387384479967219
-0,0023263438119694
-0,000578295799027638
0,0013032332345726
0,00324544972817602
0,00517386509579882
0,00701652166275609
0,00870812322543237
0,0101937844079185
0,0114321376422686
0,0123975811362438
0,0130815120974805
0,0134924620825409
0,0136551299494496
0,0136083864663582
0,0134023972186622
0,0130950715852216
0,0127480908303294
0,0124227945546351
0,0121762103240254
0,0120574961247576
0,0121050309774353
0,012344338457188
0,0127869650834065
0,0134303653643943
0,0142587729415679
0,015244968018046
0,0163527898690091
0,0175401939102794
0,0187626186389851
0,0199764108496537
0,0211420585404845
0,0222269994879638
0,0232078078778397
0,0240716090170155
0,0248166296017853
0,0254518542036449
0,0259958233356344
0,0264746702437843
0,0269195484328694
0,027363646156114
0,02783901478405
0,0283734529721591
0,0289876867884241
0,0296930673171253
0,0304899727576698
0,0313670537372641
0,0323014013936006
0,0332596516367678
0,0341999701463016
0,035074795937841
0,0358341614066317
0,0364293582140335
0,0368166850773471
0,0369609984803553
0,0368387923868875
0,036440558636145
0,0357722248565366
0,0348555288190676
0,0337272632945877
0,0324374084439251
0,0310462536079538
0,029620690527453
0,0282299291568001
0,0269409394276902
0,0258139527720274
0,0248983626795421
0,0242293425718048
0,0238254525646063
0,0236874369834092
0,0237983266652941
0,0241248605731316
0,0246201377891306
0,0252273118710981
0,0258840531155538
0,026527437953242
0,0270988845375192
0,0275487436353193
0,0278401757237994
0,0279519977353235
0,0278802624059216
0,0276384336466567
0,0272561346813608
0,0267765625849009
0,0262527735469879
0,0257431381519464
0,0253063369994833
0,0249963076987549
0,0248575608879868
0,0249212544965639
0,0252023541149321
0,0256981180326405
0,0263880356958736
0,0272352273037232
0,0281891903025524
0,0291896661319568
0,0301713073061731
0,0310687588403058
0,0318217347503421
0,0323796726725084
0,0327055872246225
0,0327788121735776
0,0325964166473487
0,032173193142528
0,031540235133471
0,030742239295964
0,0298337716728625
0,0288748196950356
0,0279260060501859
0,0270438616898725
0,0262765424950932
0,0256603289294723
0,0252171749027455
0,0249534778974707
0,0248601356988886
0,0249138453839115
0,025079497053593
0,0253134269991218
0,0255672297806494
0,0257917911922739
0,0259411968427662
0,0259761938855388
0,025866933506327
0,0255947939219176
0,0251531708954969
0,0245472170068124
0,0237926035736782
0,0229134620594648
0,0219397279299682
0,0209041538573082
0,0198392776719481
0,0187746226234832
0,0177343748660204
0,016735729295096
0,0157880254431334
0,0148927168739081
0,0140441377546474
0,0132309564048394
0,0124381442157054
0,0116492447539304
0,0108487056749462
0,0100240368015463
0,00916758084055454
0,00827772602183312
0,0073594481277912
0,00642413719423336
0,00548873511337144
0,00457427778111013
0,00370399299933731
0,00290114785374527
0,00218686283512243
0,00157811255859964
0,0010861144501535
0,000715269038393193
0,0004627621350331
0,000318875192666932
0,000267981518607024
0,000290139147150128
0,000363132265101658
0,000464767667343638
0,000575205046470851
0,000679092689284523
0,000767294177177045
0,00083802588687148
0,000897276559029913
0,000958444411803294
0,00104119858830043
0,00116964377563162
0,00136993314296291
0,001667529310106
0,00208435081529493
0,0026360589445147
0,00332973494336272
0,00416217065182109
0,00511894853569178
0,00617442369894824
0,00729264604589176
0,008429181528502
0,00953371414160486
0,0105532416231903
0,0114356236328926
0,0121332063149344
0,0126062347498146
0,0128257762096167
0,0127759116243951
0,0124550076602449
0,0118759529342066
0,0110653234312965
0,0100615275531797
0,00891206343622128
0,00767009353243739
0,00639059796162988
0,0051264041752582
0,00392440297234107
0,00282224872723717
0,00184580570998492
0,00100754532087109
0,000306025415978562
-0,000273501601878089
-0,000757393937120735
-0,00118096670132419
-0,00158508363705477
-0,0020122593376475
-0,00250257751807624
-0,00308974779870461
-0,00379761547105364
-0,00463740637336682
-0,00560593472259243
-0,00668492973132594
-0,00784155249864354
-0,00903008451518785
-0,0101946799838771
-0,011272992835532
-0,0122004220340666
-0,0129146705511806
-0,0133602879848722
-0,0134928660133858
-0,0132825798105425
-0,0127168153137426
-0,0118016882152534
-0,0105623407590292
-0,00904199066003607
-0,00729979610181897
-0,00540768494553778
-0,00344636870809997
-0,00150081715653666
0,000344496560009829
0,00201025972062605
0,00342658571417614
0,00453661052653937
0,005299204398007
0,00569065315599305
0,00570524272176286
0,00535476174061622
0,00466701454926737
0,00368350371662409
0,0024564929622192
0,00104569362904676
-0,000485170992794827
-0,00207167955876028
-0,0036516909290309
-0,00516781941778152
-0,00656929763946777
-0,0078131813571953
-0,00886491413484293
-0,00969832657638249
-0,0102951902513949
-0,010644475934544
-0,0107414771404984
-0,0105869524776283
-0,0101864154336172
-0,0095496609568325
-0,00869056918607922
-0,00762717361102345
-0,00638192988128159
-0,00498207843199321
-0,00345996423399164
-0,00185316420151552
-0,000204279236440107
0,00143972638432722
0,00302871250694768
0,00451109528573005
0,00583607759165412
0,00695626572457281
0,00783050094004588
0,00842668740220217
0,00872436980454847
0,00871680827104304
0,00841231737187347
0,00783467989480302
0,00702251162491182
0,00602753577920083
0,004911817921697
0,00374410593745359
0,00259550617917796
0,00153479772854751
0,000623734485695694
-8,72960000341507E-05
-0,000562900423896773
-0,000785282001132265
-0,000755578031275114
-0,000493790472290447
-3,72797663175225E-05
0,000562089132332518
0,00124194505036087
0,00193424964156845
0,00257059719415717
0,00308754973901219
0,00343157218482119
0,00356315961360556
0,00345981178210837
0,00311760339082064
0,00255121505647895
0,00179241932439851
0,000887147296200367
-0,000108616877872061
-0,00113376502900871
-0,00212739688975397
-0,00303409807235479
-0,00380871035687297
-0,00442018280963209
-0,00485417029560604
-0,00511415309356912
-0,00522097836244984
-0,00521086021186295
-0,00513200823911711
-0,00504017315749335
-0,00499349216601399
-0,00504707792379521
-0,00524781807662919
-0,00562983525656391
-0,00621100191565043
-0,00699081503181761
-0,00794982046707374
-0,00905064548276865
-0,0102405619403266
-0,011455373713888
-0,0126243107193225
-0,0136755281990104
-0,0145417603582604
-0,0151656661437471
-0,0155044325378044
-0,0155332644815624
-0,0152474847723918
-0,014663083570204
-0,0138156854771278
-0,0127580314719891
-0,0115561922800706
-0,01028482914697
-0,00902188924108802
-0,00784316058133952
-0,00681711279009958
-0,00600041571734343
-0,00543446177087177
-0,00514312593305661
-0,00513188851357346
-0,00538832942916619
-0,00588388954957953
-0,00657669417631032
-0,00741515448684172
-0,00834201117599175
-0,00929846433025371
-0,0102280456378924
-0,01107993130478
-0,0118114617148759
-0,0123897199424699
-0,0127921171898803
-0,0130060297524194
-0,0130276201854364
-0,0128600467452841
-0,0125113136118858
-0,011992035809781
-0,0113133857046734
-0,0104854539634177
-0,00951620080240748
-0,00841109952074018
-0,00717349137145354
-0,00580558735187062
-0,00430997701340797
-0,00269144448518229
-0,00095885366437343
0,000873148290550338
0,0027828460783856
0,00474078761573923
0,00670986856128181
0,00864623084294872
0,0105009521635391
0,012222420200652
0,013759210885699
0,0150632322754889
0,0160928599871465
0,0168157807128995
0,0172112781922645
0,0172717397030908
0,0170032267636521
0,0164250351359594
0,0155682588315109
0,0144734621652624
0,0131876445579037
0,0117607471559053
0,0102419923151215
0,00867636267741831
0,00710151446819484
0,00554538092564477
0,0040246601008029
0,00254430241674359
0,00109802468048227
-0,000330213060727965
-0,0017639151202427
-0,00323115897998669
-0,00476137117201185
-0,00638206066108016
-0,00811579832623083
-0,00997770357507318
-0,0119736487507658
-0,0140993239307907
-0,0163402254605207
-0,0186725486029224
-0,0210648856190714
-0,0234805624777767
-0,02588039610918
-0,0282256237887693
-0,0304807489987436
-0,0326160638446951
-0,0346096446282972
-0,036448670428276
-0,0381299791196848
-0,0396598448449322
-0,0410530290678219
-0,0423312178714957
-0,0435210059337598
-0,0446516188892123
-0,0457525784565214
-0,0468515085574642
-0,0479722571336367
-0,0491334705453593
-0,0503477095231787
-0,0516211425737096
-0,0529537996718768
-0,0543403209110696
-0,0557710956497442
-0,0572336606706591
-0,0587142126967342
-0,0601990915772663
-0,0616761045698674
-0,0631355870862904
-0,0645711279630369
-0,0659799240331172
-0,0673627656766116
-0,0687236885648534
-0,0700693539398879
-0,0714082383669217
-0,0727497228365144
-0,0741031703093022
-0,0754770712777786
-0,0768783204385124
-0,0783116665600289
-0,0797793548344115
-0,0812809590877709
-0,0828133826629954
-0,0843709934018657
-0,085945851074
-0,087527985139521
-0,0891056863221643
-0,0906657858857262
-0,0921939099061163
-0,093674710085035
-0,0950920855929512
-0,0964294200487115
-0,0976698625459086
-0,0987966807467077
-0,0997937073368452
-0,100645889228043
-0,101339933149006
-0,101865023602779
-0,102213571839266
-0,102381939819728
-0,102371073307045
-0,102186974879699
-0,101840951878306
-0,101349586276463
-0,10073439256492
-0,100021154439896
-0,0992389591902151
-0,0984189774684862
-0,0975930626116205
-0,0967922649907314
-0,0960453704687138
-0,0953775761059856
-0,0948094097750178
-0,0943559834059177
-0,0940266433078927
-0,0938250474930208
-0,0937496621439578
-0,0937946307972497
-0,0939509342097575
-0,0942077298082788
-0,094553740256514
-0,0949785532111099
-0,0954737000351249
-0,0960334000251545
-0,0966548872565956
-0,0973382769660095
-0,098085973913918
-0,0989016722634254
-0,0997890406022781
-0,10075022250448
-0,101784308616024
-0,102885947775156
-0,104044260458982
-0,105242197741543
-0,10645645415251
-0,10765799613905
-0,108813213147891
-0,109885640466923
-0,110838147180093
-0,11163543409059
-0,112246650003467
-0,112647914013289
-0,112824528854089
-0,112772686689033
-0,112500503055124
-0,112028264395114
-0,111387835736959
-0,110621242361921
-0,109778506974415
-0,10891488594963
-0,108087699128183
-0,107352982719639
-0,106762210896169
-0,106359327040876
-0,106178300607407
-0,1062413823115
-0,106558172694072
-0,107125552122827
-0,107928450029538
-0,108941363975416
-0,110130480993195
-0,111456209809876
-0,112875906822603
-0,114346573212486
-0,115827315490366
-0,117281395309153
-0,118677742920891
-0,11999186717552
-0,121206157393561
-0,122309632432487
-0,12329724363485
-0,124168875888261
-0,12492821092727
-0,125581617313207
-0,126137212394258
-0,126604205185265
-0,126992579700167
-0,127313121452859
-0,12757773227115
-0,127799927090037
-0,127995367469122
-0,128182265409699
-0,12838149112895
-0,128616240931133
-0,128911164969432
-0,129290915700129
-0,129778150311301
-0,130391096666541
-0,131140863800983
-0,13202873604079
-0,1330437265335
-0,134160675250699
-0,135339154685045
-0,136523392918828
-0,137643341164528
-0,138616907297189
-0,139353257175278
-0,139756962847243
-0,139732663382471
-0,139189812634419
-0,138047030018817
-0,136235554533371
-0,133701334358254
-0,130405366015627
-0,126322025064743
-0,121435296907541
-0,115733009378955
-0,109199372931806
-0,10180633163737
-0,093504400427294
-0,0842137934015478
-0,0738167195267248
-0,0621517246810816
-0,0490108869890554
-0,034140526189863
-0,0172458741794584
0,00200011403967207
0,0239439335664963
0,0489351286095394
0,0773070644086488
0,109355887704966
0,14531889948172
0,185353691662446
0,229519433307577
0,277761624632959
0,329901469902827
0,385630761996026
0,444512838948565
0,505989789290293
0,569395676431357
0,6339751533125
0,69890647761704
0,763327643310551
0,826364139533131
0,887156749581038
0,944887819148996
0,998804553425951
1,04823813707939
1,09261779128602
1,13147926240955
1,16446764745822
1,19133486937414
1,21193248810991
1,22620084196857
1,23415573385634
1,23587399247544
1,2314792414214
1,22112910148802
1,20500484421647
1,1833042272202
1,15623789984774
1,12402940145188
1,08691841566057
1,04516662332459
0,999065241188993
0,948943163887232
0,895174556891812
0,838184782215413
0,778453672550284
0,716515390397068
0,652954396510949
0,588397381358232
0,523501355839163
0,458938424337273
0,395378047179045
0,333467818064638
0,273813918152098
0,216962452759975
0,163382827522298
0,113454184406763
0,0674557074015178
0,0255613416658253
-0,0121608289799642
-0,0457446088611403
-0,0753174763150121
-0,101088738557464
-0,123334866142731
-0,142382951448452
-0,158593296436996
-0,172342122685082
-0,184005317103394
-0,193943990660792
-0,20249244920123
-0,209948971816275
-0,216569580577177
-0,222564782229862
-0,228099082061172
-0,233292923680179
-0,238226603140461
-0,242945644827005
-0,247467108959797
-0,251786322055892
-0,255883575207434
-0,259730411666425
-0,263295215363425
-0,266547906240232
-0,269463638285484
-0,272025475323961
-0,274226083515485
-0,276068525921928
-0,277566273444474
-0,278742559746068
-0,279629208608113
-0,280265054473848
-0,280694064838197
-0,280963260273139
-0,281120517170048
-0,281212331450274
-0,281281619017094
-0,281365629971813
-0,281494056956263
-0,281687421101836
-0,281955819555767
-0,282298114079849
-0,282701629031874
-0,283142408343704
-0,2835860550283
-0,283989144521969
-0,284301167068794
-0,284466917300349
-0,284429214536472
-0,284131808618527
-0,283522306295592
-0,282554944728194
-0,281193042951794
-0,279410979345944
-0,277195572295918
-0,274546780226219
-0,271477682878228
-0,268013754460186
-0,264191487069118
-0,260056465685829
-0,255661030637376
-0,251061687094222
-0,246316432229395
-0,241482168712788
-0,236612358836632
-0,231755048529655
-0,226951357341448
-0,222234492323162
-0,217629303904563
-0,21315236375266
-0,208812511011795
-0,204611786645569
-0,200546657267697
-0,196609420551818
-0,192789683768735
-0,189075814338661
-0,185456274855314
-0,181920773016504
-0,178461177160398
-0,175072168746618
-0,171751622397471
-0,168500720835922
-0,165323825355985
-0,162228132165803
-0,159223151152125
-0,156320046917602
-0,153530883006139
-0,150867809929647
-0,148342236541449
-0,145964023085558
-0,143740733028132
-0,141676979556081
-0,139773901029041
-0,13802879724128
-0,136434954406446
-0,134981680869115
-0,133654567205346
-0,132435973566125
-0,131305734062953
-0,13024205338343
-0,129222555597635
-0,128225430640043
-0,127230611592425
-0,126220907159984
-0,125183009864133
-0,124108302474277
-0,122993393493007
-0,121840327092118
-0,120656433015926
-0,119453806415705
-0,118248434546324
-0,117059014657315
-0,115905532903944
-0,114807695486077
-0,113783318429117
-0,112846789947852
-0,11200771821173
-0,111269867358864
-0,110630466311516
-0,110079949633728
-0,109602159208861
-0,109175002320902
-0,108771528412213
-0,108361356061393
-0,107912356037236
-0,107392477721006
-0,106771596178668
-0,106023256473586
-0,105126200372326
-0,104065577609501
-0,102833767847488
-0,10143076834041
-0,0998641337050272
-0,098148485563158
-0,0963046387017358
-0,0943584146273448
-0,0923392312852641
-0,0902785681411818
-0,0882084083905081
-0,0861597549589328
-0,0841613050843021
-0,082238350974677
-0,0804119530694781
-0,0786984097042095
-0,0771090244548495
-0,0756501518614261
-0,0743234850989037
-0,0731265365070909
-0,072053254297271
-0,0710947163030222
-0,0702398439772304
-0,0694760862124985
-0,0687900319732232
-0,0681679220329623
-0,0675960421198936
-0,0670609914463729
-0,0665498310196878
-0,0660501247116578
-0,0655498924008699
-0,0650374985818234
-0,0645015017309728
-0,0639304898367168
-0,063312926161294
-0,0626370270306385
-0,0618906905137342
-0,0610614916408683
-0,0601367563318833
-0,0591037225925462
-0,0579497935567208
-0,0566628825700537
-0,0552318454456991
-0,0536469893010508
-0,0519006409317545
-0,0499877508251459
-0,047906501946781
-0,0456588860503132
-0,0432512051059255
-0,0406944523758058
-0,0380045274262365
-0,0352022426544997
-0,0323130860949551
-0,0293667165117955
-0,0263961817723142
-0,0234368695157357
-0,0205252191154014
-0,0176972443956213
-0,014986935831829
-0,0124246272407568
-0,0100354235462565
-0,0078377915530662
-0,00584241377137086
-0,00405139559181543
-0,00245789870110527
-0,00104624929326905
0,00020746010564994
0,00133428954262678
0,00237093962566571
0,00335788920127638
0,00433729098930107
0,00535075414454027
0,00643715436540982
0,00763061352904064
0,00895878133912271
0,0104415316344489
0,0120901570380539
0,0139071097856199
0,0158862965547245
0,0180138941949779
0,0202696147772504
0,022628315542748
0,0250618249071722
0,0275408417411205
0,0300367628731444
0,0325233033198216
0,0349777942899807
0,0373820736722697
0,0397229199370713
0,0419920198888955
0,0441855001125869
0,0463030877692432
0,0483469956003634
0,0503206461000485
0,0522273593142225
0,0540691269409365
0,0558455828877323
0,0575532585485562
0,0591851821209951
0,0607308481269001
0,0621765491721795
0,0635060300499327
0,0647013974875282
0,065744199499859
0,0666165779583521
0,0673023972374209
0,0677882602834572
0,0680643399127434
0,068124975485591
0,0679690108177946
0,0675998753576151
0,067025434524183
0,0662576541578644
0,0653121364617555
0,0642075894404035
0,0629652885754617
0,0616085789479455
0,0601624498403496
0,0586531941627353
0,057108144493553
0,0555554587836625
0,0540239143654789
0,0525426608747972
0,051140882330351
0,0498473263305922
0,0486896735692266
0,0476937421915959
0,0468825465731758
0,0462752561511762
0,0458861237902111
0,0457234718289473
0,0457888347487399
0,0460763584518124
0,0465725463923259
0,047256422468142
0,0481001508617907
0,0490701163116733
0,0501284277615113
0,0512347678057193
0,0523484738236682
0,0534307079998747
0,0544465558466973
0,0553668887185099
0,0561698362670983
0,056841739645407
0,0573774939339028
0,0577802358325137
0,0580603862466487
0,0582341123120945
0,0583213247608694
0,0583433695279327
0,0583206030322667
0,0582700554923737
0,0582033842131008
0,0581252987478765
0,0580326036061798
0,0579139545384914
0,0577503655691083
0,0575164408298386
0,057182243371429
0,0567156579182819
0,0560850608619232
0,055262082604903
0,0542242371886818
0,0529572029916316
0,0514565654416665
0,049728875864191
0,047791936021943
0,045674280865431
0,0434138969841191
0,0410562757042248
0,0386519524302873
0,0362537232653611
0,033913752918157
0,0316807926625145
0,0295977135308211
0,0276995294290309
0,0260120404251089
0,0245511721626796
0,0233230280883846
0,0223246121891612
0,0215451263486471
0,0209677027425218
0,0205714014903251
0,0203332893270887
0,0202304172009274
0,0202415327618391
0,0203483956316997
0,0205366058832632
0,0207959051757769
0,0211199608994785
0,021505691842869
0,0219522349775617
0,0224596834742446
0,0230277434807097
0,023654460291703
0,0243351533921685
0,025061675857284
0,0258220792509706
0,0266007239041191
0,0273788302194906
0,0281354236109814
0,0288485877814379
0,0294969116749062
0,0300609971950597
0,030524889099428
0,030877295751645
0,0311124887005251
0,0312307984884087
0,0312386607674931
0,0311482073493063
0,0309764374245533
0,0307440412332794
0,0304739785944332
0,0301899352935045
0,0299147896335834
0,0296692187557738
0,0294705600403153
0,0293320183749534
0,0292622776921919
0,0292655378366286
0,0293419590063419
0,0294884590972315
0,0296997776350626
0,0299696962942327
0,0302922923528547
0,0306630989506057
0,03108005479035
0,031544145164273
0,0320596640607382
0,0326340611859899
0,0332773749545262
0,0340012896732236
0,0348178890161457
0,0357382056500233
0,0367706861687478
0,0379196998348594
0,0391842183228926
0,0405567819649072
0,0420228470964541
0,0435605807979335
0,0451411361906406
0,0467294061835438
0,0482852191521536
0,0497649091242422
0,0511231680117605
0,0523150699549631
0,0532981489649245
0,0540344109683929
0,0544921695524307
0,0546476099643378
0,0544860065035784
0,0540025423346735
0,0532027057171818
0,0521022607094411
0,0507268117401379
0,0491109987961538
0,0472973725923018
0,0453350067928597
0,0432779075729377
0,041183280346767
0,0391097105118028
0,0371153108289857
0,0352558837880247
0,0335831439525157
0,0321430434680382
0,0309742437304976
0,0301067773624567
0,0295609462870777
0,0293465027276684
0,029462159133512
0,0298954690001804
0,030623112377075
0,0316116068695193
0,0328184470889901
0,0341936534601401
0,0356816862506584
0,0372236545827138
0,038759725276537
0,0402316151968486
0,0415850358355477
0,0427719522544177
0,043752521838265
0,0444965922607311
0,0449846624038974
0,045208243403444
0,0451695972830348
0,0448808746451678
0,0443627170384148
0,0436424299466362
0,0427518651790963
0,0417251735143348
0,040596597389234
0,039398468093809
0,0381595522997554
0,0369038603780892
0,0356499864473794
0,0344110012785802
0,0331948684417779
0,0320053061823306
0,0308429770520369
0,0297068582033854
0,0285956304772227
0,0275089254839083
0,0264482869800267
0,0254177343987035
0,0244238595298481
0,0234754379613224
0,0225825900249398
0,021755576484321
0,021003356884913
0,0203320690830561
0,0197436036027859
0,0192344443688985
0,0187949278463779
0,0184090371915257
0,018054799753799
0,0177052995772134
0,0173302566833932
0,0168980675182277
0,0163781515906995
0,0157434128080063
0,0149726041578175
0,0140523833044255
0,0129788649776962
0,0117585124317093
0,010408261743219
0,00895483505027083
0,00743326644360395
0,00588473135283951
0,00435383084578058
0,00288553094444079
0,00152198951626527
0,00029951647995259
-0,000754094154687368
-0,00162164910915415
-0,00229789103536545
-0,00278997630435609
-0,00311705511334892
-0,00330898426141689
-0,00340427072644182
-0,00344740343085689
-0,00348577648704032
-0,00356643607546963
-0,00373289285656649
-0,00402223194220576
-0,00446272423522275
-0,005072099132651
-0,00585658328803305
-0,00681074822818537
-0,00791814653976759
-0,00915265738938715
-0,0104804121076296
-0,0118621333387849
-0,0132556993946619
-0,014618740189952
-0,0159110820323517
-0,0170968838814136
-0,018146344453179
-0,0190369037945507
-0,0197539103295037
-0,0202907702856926
-0,0206486368004676
-0,0208357273359329
-0,0208663779413467
-0,0207599502504387
-0,0205397018848759
-0,0202317147035071
-0,0198639503492295
-0,0194654722332547
-0,0190658410525656
-0,0186946609481278
-0,0183812290464351
-0,0181542249586992
-0,0180413708978396
-0,0180689978527643
-0,01826146840027
-0,0186404304312707
-0,0192239056228973
-0,0200252486488336
-0,0210520439329357
-0,0223050326780865
-0,0237771804104409
-0,025453001959315
-0,0273082550528378
-0,0293100952184137
-0,0314177545600653
-0,0335837673690839
-0,0357557198776574
-0,0378784537372035
-0,0398966075926204
-0,0417573428867137
-0,0434130727462877
-0,0448239996998614
-0,0459602709671215
-0,046803579797102
-0,0473480767690779
-0,0476005037066546
-0,0475795211407616
-0,0473142633240394
-0,0468422172693064
-0,0462065786705268
-0,045453282734962
-0,0446279376307296
-0,0437728993712864
-0,0429247180699067
-0,0421121568965356
-0,0413549387460221
-0,0406633152843784
-0,0400384836025562
-0,0394738031531208
-0,0389566962073501
-0,0384710548971469
-0,0379999324809361
-0,0375282699423126
-0,0370454040932366
-0,0365471206384937
-0,0360370540443373
-0,0355272923722939
-0,035038114728895
-0,0345968657265016
-0,0342360485857686
-0,0339907895437212
-0,0338958846347532
-0,0339826805141995
-0,0342760600439017
-0,0347917990021334
-0,0355345327546202
-0,0364965232090496
-0,0376573510577785
-0,0389845817127628
-0,0404353720635055
-0,0419589062556484
-0,0434994788779202
-0,044999989312176
-0,0464055761358761
-0,0476671083978969
-0,0487442622285808
-0,0496079455143379
-0,0502418872159577
-0,050643276621588
-0,0508224154977543
-0,050801426009043
-0,0506121326970939
-0,0502933013836571
-0,049887466334553
-0,0494376054995395
-0,048983930056429
-0,0485610386988882
-0,0481956508339061
-0,0479050795838577
-0,0476965400373492
-0,0475673164218374
-0,0475057399765384
-0,0474928633871692
-0,0475046632085294
-0,0475145630761724
-0,0474960506386012
-0,0474251611971403
-0,0472826205547536
-0,0470554763299698
-0,0467380973582329
-0,046332480069963
-0,0458478635040454
-0,0452997153539334
-0,0447082048738953
-0,044096320130684
-0,0434878136063424
-0,042905169604103
-0,0423677788642301
-0,0418904814034745
-0,0414826003960088
-0,0411475416324869
-0,0408829792196873
-0,0406815936437902
-0,0405322779683066
-0,0404216861667826
-0,0403359679506693
-0,0402625193434746
-0,0401915787655362
-0,0401175141956988
-0,0400396764372036
-0,0399627338066573
-0,0398964509638301
-0,0398549248835743
-0,0398553396596595
-0,0399163447601128
-0,040056194860832
-0,0402908107498594
-0,0406319283605326
-0,0410854962996578
-0,0416504621377089
-0,0423180560494487
-0,0430716400569964
-0,0438871455861931
-0,0447340751991639
-0,0455770000796539
-0,0463774466552414
-0,0470960366896609
-0,0476947273043304
-0,0481389919585883
-0,0483997904388887
-0,0484551945776927
-0,0482915648615715
-0,0479042087485771
-0,0472974914337899
-0,0464844105519694
-0,0454856848585678
-0,0443284401008226
-0,0430446008925252
-0,0416691135416728
-0,0402381306162519
-0,0387872835176859
-0,0373501550814072
-0,0359570419577858
-0,0346340680274936
-0,0334026781561531
-0,0322795086240001
-0,0312765994183968
-0,0304018866807392
-0,0296598929147207
-0,0290525198098089
-0,0285798443118161
-0,0282408233656513
-0,0280338257292177
-0,027956929467554
-0,0280079493151954
-0,0281841869250844
-0,0284819267655719
-0,0288957284163139
-0,0294175901379906
-0,0300360764742005
-0,0307355129383873
-0,0314953522081669
-0,0322898085384163
-0,0330878405053497
-0,0338535377644088
-0,0345469369942653
-0,0351252576943599
-0,0355445128563365
-0,0357614152578953
-0,0357354703783237
-0,0354311239940593
-0,0348198187966991
-0,0338818112272583
-0,0326076079807411
-0,0309989012208179
-0,029068911316087
-0,0268420842116432
-0,0243531344738568
-0,021645471734756
-0,0187690938543945
-0,0157780712870537
-0,0127277803252349
-0,00967206529090024
-0,00666051928999349
-0,00373606853491385
-0,000933026663083561
0,00172424626754527
0,00422198788539238
