-0,00075763884555977
0,00203610007988816
0,00488719097588083
0,00770003880120133
0,0103840320104052
0,0128572612598071
0,0150494169733257
0,0169037674502852
0,018378208200318
0,0194454543727283
0,0200925136751806
0,0203196211856623
0,0201388367723588
0,0195725000201138
0,018651709074748
0,0174149435387085
0,0159068942213553
0,0141775020285699
0,0122811525085005
0,010275928851602
0,00822280015177629
0,00618461699912362
0,00422480390526733
0,00240567590092811
0,000786360638168692
-0,000579628853931665
-0,00164705959343981
-0,00238171104428633
-0,00276295694170296
-0,0027859528706104
-0,00246318446692028
-0,00182515623893113
-0,000920051865181794
0,000187730305508532
0,00142017406817723
0,00268928542652622
0,00390159159497023
0,00496323004488522
0,00578529344141523
0,00628905733474541
0,00641070942041519
0,00610522389660899
0,0053490806067686
0,00414161204142146
0,00250486499286475
0,000481978822284906
-0,00186580108906672
-0,00446324839715996
-0,00722610368534762
-0,0100664664419326
-0,0128982211776712
-0,0156420910339139
-0,0182299496570505
-0,0206080901296074
-0,0227392421651324
-0,0246032372778261
-0,0261963365045236
-0,027529346406139
-0,028624746799606
-0,0295131296858444
-0,0302292968844425
-0,0308083803045765
-0,0312823328184174
-0,0316770914819931
-0,0320106431195098
-0,032292132008104
-0,0325220489790064
-0,0326934398131098
-0,0327939774075507
-0,0328086648767981
-0,032722882083536
-0,0325254603625854
-0,0322114713603524
-0,0317844452442622
-0,0312577879493582
-0,0306552413924403
-0,0300103178929267
-0,0293647326011255
-0,0287659474852085
-0,0282640197497172
-0,0279080098085159
-0,0277422441651857
-0,0278027436230911
-0,028114116324017
-0,0286871793748767
-0,0295175155901166
-0,0305850980664428
-0,0318550311076473
-0,033279368333312
-0,0347998846577106
-0,0363516048585557
-0,0378668333083734
-0,0392793915203285
-0,0405287550765393
-0,0415637902023466
-0,0423458216870909
-0,0428508153973942
-0,0430705260514576
-0,0430125389546853
-0,0426992169931046
-0,0421656450784096
-0,0414567373918946
-0,0406237327741254
-0,0397203461717749
-0,0387988661198072
-0,0379064884764874
-0,0370821551449234
-0,0363541252129912
-0,0357384480046829
-0,0352384374854328
-0,0348451705840801
-0,0345389540943384
-0,0342916317494547
-0,0340695402180814
-0,0338368748719946
-0,0335591966819102
-0,0332068027131776
-0,03275769493622
-0,0321999145081432
-0,0315330587584448
-0,0307688619990723
-0,0299307940803463
-0,0290527067780056
-0,0281766317763851
-0,0273498995987008
-0,0266218012674753
-0,0260400497699893
-0,0256473138005512
-0,0254780906024454
-0,0255561584438224
-0,0258928043786869
-0,0264859629416457
-0,0273203309369598
-0,0283684480007945
-0,0295926579933553
-0,0309477983365122
-0,0323844083966055
-0,0338522083587127
-0,0353035797247006
-0,036696779262606
-0,0379986397580597
-0,0391865516457695
-0,0402495762570693
-0,0411886095717134
-0,0420155896818014
-0,0427518158154487
-0,0434255159580904
-0,044068858424258
-0,0447146457508601
-0,0453929536544665
-0,0461279817741325
-0,0469353662627592
-0,0478201683967545
-0,048775701141165
-0,0497832911224865
-0,0508130017780483
-0,0518252701003131
-0,052773339978964
-0,0536063149736543
-0,0542726068325719
-0,0547235267386201
-0,0549167560679929
-0,0548194430676805
-0,0544107003157415
-0,0536833228331233
-0,0526446047021409
-0,0513161985091512
-0,0497330318367615
-0,0479413630463892
-0,0459961197131537
-0,0439577127459513
-0,041888553909816
-0,0398495216989078
-0,0378966192578208
-0,0360780486198501
-0,0344318896226594
-0,0329845224532544
-0,0317498737989989
-0,0307295027040532
-0,0299134784916815
-0,029281944459099
-0,0288072121016288
-0,0284561950969658
-0,028192972968813
-0,027981272624069
-0,0277866718251338
-0,0275783607278732
-0,0273303430422939
-0,0270220133565803
-0,0266381068824857
-0,0261680772658334
-0,0256050118816595
-0,0249442374593572
-0,0241817980105869
-0,0233129990529184
-0,0223312057417582
-0,0212270579930627
-0,0199882249114838
-0,0185997672073182
-0,0170451144227911
-0,0153075992088812
-0,0133724294787313
-0,0112289268282973
-0,00887282132230856
-0,00630837263524645
-0,00355008817898747
-0,000623830943400331
0,0024328477963242
0,00557125612011365
0,00873302245840138
0,0118524242916752
0,0148594605029804
0,0176834723011378
0,0202570604872353
0,0225200092390259
0,0244229124723185
0,02593021029292
0,0270223799274983
0,0276970853429506
0,0279691680822625
0,0278694523133321
0,0274424322769315
0,0267430020605288
0,0258324679862153
0,0247741457101773
0,023628881725428
0,0224508486991573
0,0212839447134082
0,0201590792401583
0,0190925573693128
0,0180856842174804
0,0171256112382883
0,0161873437811378
0,0152367336138821
0,0142341994588972
0,0131388599286496
0,0119127316601594
0,0105246436741401
0,00895354707525295
0,00719095460810182
0,00524232227570747
0,0031272782468329
0,000878704283259476
-0,00145922699450005
-0,00383386822764865
-0,00618750691173181
-0,00846106368693442
-0,0105977577332824
-0,0125464300095755
-0,0142642550656242
-0,0157186357164936
-0,0168881558673763
-0,0177625574505935
-0,0183417992759147
-0,0186343400202713
-0,0186548568420989
-0,0184216589001847
-0,0179540771819574
-0,0172701067831104
-0,0163845459028318
-0,015307820737361
-0,0140456125830932
-0,0125993199715237
-0,0109673025424987
-0,00914677289205389
-0,00713613538033365
-0,00493752316800175
-0,00255926098366466
-1,79834025408866E-05
0,00265983359318877
0,00543711905031403
0,00826635372951534
0,0110906586675333
0,0138457825632979
0,0164628639535571
0,0188717742626352
0,0210047952060269
0,0228003532756319
0,0242065275836013
0,0251840653672473
0,0257086799396787
0,025772464711799
0,0253843285441444
0,024569435386842
0,0233677080316802
0,0218315250241281
0,0200227956723839
0,0180096362323469
0,0158628882446917
0,0136527170395017
0,0114455059989102
0,00930122342703432
0,0072713882499132
0,00539770370470371
0,00371137028568591
0,00223303595261052
0,000973297559662313
-6,63639277836907E-05
-0,000892348763852954
-0,00151754071627307
-0,00195987132295853
-0,00224094885149331
-0,002384825178924
-0,00241694125014468
-0,00236326033983651
-0,00224957183338702
-0,00210092955841667
-0,00194117962430365
-0,00179253362108956
-0,00167515302876294
-0,00160672765516897
-0,00160205180832974
-0,00167262322148785
-0,00182630788735243
-0,00206712567923178
-0,00239521462880412
-0,00280702471394542
-0,00329577503399057
-0,00385218282359177
-0,00446544146912375
-0,00512439119382124
-0,00581879452287122
-0,00654060324290624
-0,00728508812520206
-0,00805170008608842
-0,0088445432741891
-0,00967236684954357
-0,0105480213463309
-0,0114873743170603
-0,0125077340086751
-0,0136258837722596
-0,0148558781504861
-0,0162067886486167
-0,0176806085890492
-0,0192705289092807
-0,020959778892339
-0,0227211881364118
-0,024517571181248
-0,0263029684745641
-0,028024702737032
-0,0296261350082903
-0,0310499369005932
-0,0322416414986976
-0,0331532005613085
-0,0337462640954161
-0,0339949118686317
-0,0338876044149633
-0,0334281807640415
-0,0326358064296178
-0,0315438614993465
-0,0301978471428739
-0,0286524714489571
-0,0269681445007985
-0,0252071615033518
-0,0234298769220662
-0,0216911695973817
-0,0200374688190936
-0,0185045571381741
-0,0171162923053819
-0,0158843050667601
-0,0148086397343528
-0,0138792189921789
-0,0130779414517657
-0,0123811669081152
-0,0117623151648627
-0,0111943023347418
-0,0106515637091504
-0,0101114620066445
-0,00955494903462634
-0,00896643055492375
-0,00833287033723416
-0,00764225135471223
-0,00688158174141261
-0,00603468353632819
-0,00508002844439708
-0,00398888429201118
-0,00272400870134348
-0,00123907555823973
0,000521049672822694
0,00261915079434615
0,0051236672572026
0,00810599464400682
0,0116372739051953
0,0157849103961274
0,0206090860189492
0,0261595239001605
0,0324727358002136
0,0395699313016866
0,0474557004568241
0,0561175054380558
0,0655259401743475
0,0756356483443259
0,0863867369491568
0,0977064908469097
0,109511186533364
0,121707821899554
0,134195620467744
0,146867228895109
0,159609598227518
0,172304613883044
0,184829607394874
0,197057935709454
0,208859843746534
0,22010382768911
0,230658687602571
0,240396399294723
0,249195850911137
0,256947386800403
0,263557989258881
0,268956819099013
0,273100740296909
0,27597938341488
0,27761926643325
0,278086496769312
0,277487627730706
0,275968335681323
0,273709715881988
0,270922156652377
0,267836931300142
0,264695831133419
0,261739335609932
0,259193962410129
0,257259547509722
0,256097262554193
0,255819177015982
0,256480113238026
0,258072425651987
0,260524168049569
0,263700905683973
0,267411196527829
0,271415524699845
0,275438236407908
0,279181821759462
0,282342719796737
0,284627711442402
0,285769914206726
0,285543407435344
0,283775596767237
0,280356565806118
0,275244852083995
0,268469310027271
0,260126970265021
0,250377055387787
0,239431550320272
0,227542935143918
0,214989856051262
0,202061625842363
0,18904250241777
0,176196689599271
0,163754940930689
0,151903529382055
0,140776182908236
0,130449389143273
0,120941255424518
0,112213887094636
0,104179031766691
0,096706543258314
0,0896350577002792
0,0827841551246974
0,0759672089188513
0,0690041061228858
0,0617330535454184
0,0540207648983837
0,0457704464725509
0,0369271547304129
0,0274802780979934
0,0174630854490576
0,00694947301245558
-0,00395178235531656
-0,0151048035096729
-0,0263558484813975
-0,0375433449068723
-0,0485080349576505
-0,05910255681374
-0,0691998484499666
-0,0786998597311582
-0,0875341921263734
-0,0956684419716488
-0,1031021918373
-0,109866762951775
-0,116020997673858
-0,121645473425408
-0,12683564885732
-0,131694502302345
-0,136325237875713
-0,140824605326536
-0,145277308838113
-0,149751873535232
-0,154298205422068
-0,158946931837192
-0,163710457489488
-0,168585528165565
-0,17355697192235
-0,1786021958648
-0,183695962781157
-0,188814960071683
-0,193941704127542
-0,199067393602906
-0,204193428529453
-0,209331439809849
-0,214501814194517
-0,219730841187029
-0,225046738250671
-0,230474918053589
-0,236032937106124
-0,241725602582873
-0,247540710272499
-0,253445841849478
-0,259386567896208
-0,265286291328372
-0,271047833566569
-0,276556724103006
-0,281686014867262
-0,286302315529801
-0,290272644796001
-0,293471623961476
-0,295788507806307
-0,297133556440109
-0,297443298803117
-0,296684319884127
-0,294855312311443
-0,291987259771552
-0,288141754375693
-0,283407581956609
-0,277895828196322
-0,271733855642156
-0,265058570307758
-0,258009432394627
-0,25072166721555
-0,243320100905601
-0,235913984799365
-0,228593088330032
-0,221425240471074
-0,214455392348856
-0,207706167167075
-0,201179765836343
-0,194861014375075
-0,188721277277207
-0,182722922722289
-0,176824011756727
-0,170982893456379
-0,165162418883321
-0,159333534266816
-0,153478073281496
-0,147590634088199
-0,141679493611221
-0,135766574465063
-0,129886535048286
-0,124085097706904
-0,118416761892736
-0,11294206845296
-0,107724588252146
-0,102827804741448
-0,0983120479725171
-0,0942316193104265
-0,0906322241075601
-0,0875488060397168
-0,085003853354419
-0,0830062251272268
-0,0815505253452177
-0,0806170343234856
-0,0801721902967934
-0,080169598478621
-0,0805515298581398
-0,0812508570744886
-0,0821933597027599
-0,0833003164160978
-0,0844912873956571
-0,0856869780081124
-0,0868120654597643
-0,0877978651986466
-0,0885847146093285
-0,0891239590289943
-0,0893794398967926
-0,0893284068900105
-0,0889618045008442
-0,0882839172460739
-0,0873113945392868
-0,0860717136747778
-0,0846011745335835
-0,0829425497034205
-0,0811425360604885
-0,0792491664137677
-0,0773093411276075
-0,0753666292625288
-0,0734594671623172
-0,0716198510630816
-0,0698725815292835
-0,0682350744196675
-0,0667177091236907
-0,065324643629205
-0,0640549910543022
-0,0629042265396815
-0,0618656790434248
-0,0609319608258702
-0,0600961983636644
-0,0593529510975004
-0,0586987367741631
-0,0581321213091249
-0,0576533736046173
-0,057263727863422
-0,056964333924139
-0,0567550067170115
-0,0566329064285669
-0,056591289654134
-0,0566184679977414
-0,0566970946778996
-0,0568038731274222
-0,0569097467425722
-0,0569805888165738
-0,0569783697706847
-0,0568627385702516
-0,0565929200301403
-0,0561298023875385
-0,0554380721827962
-0,0544882473642127
-0,0532584649210107
-0,0517358955965682
-0,0499176838294453
-0,0478113438411474
-0,0454345800323167
-0,04281453868385
-0,0399865354416482
-0,0369923365615685
-0,0338780991231693
-0,0306920947810677
-0,0274823520943172
-0,0242943537951238
-0,0211689179112051
-0,018140376425324
-0,0152351435671304
-0,0124707396826717
-0,00985530781644051
-0,00738763064545123
-0,00505762703823219
-0,00284728188995325
-0,000731941291680484
0,00131811150451653
0,00333589491123549
0,00535588344563973
0,00741217817983214
0,00953678782126019
0,0117581045915872
0,0140996446590344
0,016579105460107
0,0192077727837432
0,0219902900322301
0,024924781650975
0,0280033033835509
0,0312125747149287
0,0345349345251988
0,0379494503527538
0,0414331053763045
0,0449619856755606
0,048512393670958
0,0520618217717234
0,0555897327397132
0,0590781093776368
0,0625117548636957
0,0658783451034749
0,0691682544241836
0,0723741942577333
0,075490719671755
0,0785136693372257
0,0814396097330632
0,0842653533596262
0,086987613297152
0,0896028428973778
0,0921072906309069
0,094497277514099
0,096769679933815
0,0989225761893344
0,100955992955097
0,10287267034252
0,104678753240785
0,106384313673145
0,108003614880013
0,109555042897567
0,111060654863155
0,112545323704563
0,114035494056323
0,115557601421508
0,117136242623825
0,118792217201543
0,120540583466468
0,122388886830138
0,124335719722718
0,126369760941451
0,12846941759517
0,130603156091697
0,132730562081002
0,134804116114602
0,136771615928787
0,138579122104334
0,140174255856484
0,141509640077163
0,142546251056478
0,143256441150745
0,143626403416843
0,143657877901842
0,143368944409204
0,142793805317442
0,14198153041195
0,140993808725954
0,139901824653479
0,138782441454336
0,137713929535332
0,136771515041726
0,136023043046825
0,135525047098911
0,135319492837772
0,135431419276973
0,135867640190225
0,136616594285874
0,137649351934293
0,138921704269585
0,140377183705591
0,141950799205932
0,143573220057667
0,145175112243193
0,146691324049339
0,148064632799373
0,149248801311388
0,15021074789006
0,150931702965496
0,151407303396235
0,151646655800918
0,151670476788314
0,151508484646541
0,151196268871478
0,150771896948093
0,150272529800425
0,149731307668202
0,149174738062408
0,148620769710807
0,148077675242503
0,147543796032065
0,147008130958848
0,146451682747904
0,145849416590764
0,145172640530888
0,144391589088464
0,143477982715365
0,142407346160694
0,141160897367122
0,139726862198975
0,138101125043763
0,136287186167502
0,134295458236849
0,132141991332792
0,129846763224577
0,127431705750318
0,124918656188879
0,122327423297616
0,119674141556298
0,116970055912469
0,114220836058903
0,111426468133688
0,108581717420213
0,105677103109842
0,102700280137655
0,099637687572475
0,096476301045456
0,0932053200166114
0,0898176296722754
0,0863109008545228
0,0826882273063534
0,0789582442299975
0,0751347215143209
0,0712356744211223
0,0672820795109985
0,063296320053985
0,0593005098363971
0,0553148549612808
0,0513562090732223
0,0474369588420442
0,0435643453246139
0,0397402858550564
0,0359617142107465
0,0322214082548817
0,0285092285290494
0,0248136525733578
0,0211234616377724
0,0174294215257449
0,0137257989928532
0,0100115694896153
0,00629119982995722
0,00257492810800152
-0,00112149066267786
-0,00477755532640999
-0,00836923987542273
-0,011870557099139
-0,015255323971165
-0,0184989685856962
-0,0215802137524704
-0,0244824831598249
-0,0271949014695686
-0,0297127976494341
-0,0320376678509624
-0,0341766059062546
-0,0361412611778704
-0,0379464301177377
-0,0396084249036829
-0,0411433861354917
-0,042565714223385
-0,0438867846280327
-0,0451140860074383
-0,0462508796629245
-0,0472964269962263
-0,048246773707217
-0,0490960206395732
-0,0498379572796783
-0,0504678903589478
-0,0509844714893978
-0,0513913176475827
-0,0516982283302858
-0,0519218332211713
-0,0520855521322582
-0,0522188109794576
-0,0523555282031326
-0,0525319589781925
-0,0527840528534558
-0,0531445374097172
-0,0536399802196434
-0,0542880993053166
-0,0550955858229556
-0,0560566713803012
-0,0571526181432255
-0,0583522367659991
-0,0596134512126799
-0,0608858381352865
-0,0621139797779301
-0,0632413915953466
-0,0642147263082288
-0,0649879209510808
-0,0655259465083445
-0,0658078423933488
-0,0658287690843889
-0,0656008878078377
-0,0651529700732562
-0,0645287441377692
-0,0637840909946635
-0,0629832999163509
-0,0621946741150593
-0,0614858333487253
-0,060919087010424
-0,0605472457299215
-0,0604102020280376
-0,0605325442412426
-0,0609223785626614
-0,0615714295767497
-0,0624563794189789
-0,0635412996261693
-0,0647809373997382
-0,0661245477290685
-0,0675199209525869
-0,0689172455552466
-0,0702724691157162
-0,071549874008505
-0,0727236636703236
-0,0737784524877594
-0,0747086585411195
-0,0755169036417807
-0,0762116194941493
-0,0768041336354283
-0,077305557108141
-0,0777238131404404
-0,0780611309021299
-0,0783122821194169
-0,0784637653478256
-0,0784940498399256
-0,0783748868768251
-0,0780735908659568
-0,0775560952518451
-0,0767905084209377
-0,0757508397264518
-0,0744205407187667
-0,0727955140388938
-0,070886281723314
-0,0687190724562551
-0,0663356776212699
-0,0637920308737718
-0,0611555760939236
-0,0585015943105251
-0,055908752186191
-0,0534542049168029
-0,051208628809556
-0,0492315697361936
-0,0475674722496708
-0,0462427023115254
-0,0452637988684389
-0,0446170926180484
-0,0442697225140608
-0,0441719709797983
-0,0442607365485538
-0,0444638761475863
-0,0447050853775994
-0,0449089488549805
-0,0450057864572854
-0,0449359450936242
-0,0446532368438963
-0,0441272981484425
-0,0433447346393717
-0,0423090143844817
-0,0410391705543302
-0,0395674647601249
-0,0379362374182615
-0,0361942257994675
-0,0343926601288687
-0,0325814516488502
-0,0308057645297604
-0,0291032187030729
-0,0275019076299773
-0,0260193396468804
-0,0246623306065564
-0,0234277960061348
-0,0223043192761528
-0,0212743150315029
-0,0203165661468979
-0,0194088941042889
-0,0185307238773049
-0,0176653265740824
-0,0168015623405948
-0,0159349984670746
-0,0150683381162383
-0,0142111579835485
-0,013379012972425
-0,0125920175440992
-0,0118730527081145
-0,0112457718244384
-0,0107325861286555
-0,0103528023562035
-0,0101210616393811
-0,0100461938633308
-0,0101305586858626
-0,0103698977956162
-0,0107536771557345
-0,0112658571322713
-0,0118859959993
-0,0125905708825402
-0,01335439106251
-0,0141519818056086
-0,0149588314162999
-0,0157524178079824
-0,016512960668824
-0,0172238777760257
-0,0178719557176332
-0,0184472729185552
-0,018942933772634
-0,0193546850272453
-0,0196804884843252
-0,019920117845124
-0,0200748333063543
-0,0201471674392664
-0,0201408325761026
-0,0200607363867069
-0,0199130714670521
-0,0197054291442911
-0,0194468792899798
-0,0191479577667342
-0,018820511377973
-0,0184773659587308
-0,0181318048323551
-0,0177968698280179
-0,0174845225571136
-0,0172047267422896
-0,016964530287915
-0,0167672362568273
-0,0166117534540569
-0,0164922093463237
-0,016397890985666
-0,016313554809013
-0,0162201158820165
-0,0160956941045878
-0,0159169622476176
-0,015660711563043
-0,0153055279101835
-0,0148334571283869
-0,0142315341589503
-0,0134930566997343
-0,012618500456122
-0,0116159979385373
-0,0105013341004751
-0,00929744718080665
-0,0080334589587541
-0,00674329226367258
-0,00546396235008062
-0,00423365049620736
-0,0030896814583012
-0,00206653057249131
-0,00119398147022348
-0,000495542461694448
1,27898752201509E-05
0,000323355594439082
0,00043720729352347
0,000364026918599977
0,000121599313860238
-0,000265118566502572
-0,000765274815806186
-0,00134367371606398
-0,00196251884873868
-0,00258326112617751
-0,00316846375122741
-0,00368359864845186
-0,00409869427254574
-0,00438976230883298
-0,00453994024532396
-0,00454029783530415
-0,0043902680346028
-0,00409767707338136
-0,00367836394352711
-0,00315539669464319
-0,00255791126617765
-0,00191961766532268
-0,00127703730313503
-0,000667553152740489
-0,000127369770147414
0,000310508323303757
0,000618165271740042
0,000774415338206078
0,000766090854942459
0,000588885973892395
0,00024768864314851
-0,000243637135895153
-0,000863022245025767
-0,00158148298305255
-0,00236486065449312
-0,0031759057639495
-0,00397657441932845
-0,00473038516427068
-0,00540467569165439
-0,00597260200002067
-0,00641473785621821
-0,00672015919461628
-0,00688693458812997
-0,00692198650354885
-0,00684033534821325
-0,00666378552782212
-0,00641915594723353
-0,00613619292330625
-0,00584532823352006
-0,00557545674772409
-0,00535190562701163
-0,00519475046316724
-0,00511760426287754
-0,00512696525191774
-0,00522216244215028
-0,00539588776180623
-0,00563525458933189
-0,0059232789751169
-0,00624064543512343
-0,00656759692955582
-0,00688578039381707
-0,00717988563875789
-0,0074389359714281
-0,00765712162513113
-0,00783410910572245
-0,0079748071208959
-0,00808861863046219
-0,00818825445384984
-0,00828822274694828
-0,00840313716296002
-0,00854600218289459
-0,0087266356606159
-0,00895037603775363
-0,0092171961471481
-0,00952130938018244
-0,00985131047455403
-0,0101908461596736
-0,0105197644616116
-0,0108156496775119
-0,0110556164164636
-0,0112182134948665
-0,0112852786893053
-0,0112435890582149
-0,0110861682640996
-0,0108131404544311
-0,0104320572253462
-0,0099576667623636
-0,0094111387307175
-0,00881880115002665
-0,008210482839147
-0,00761758409847212
-0,00707101698656329
-0,00659916362371818
-0,00622599627815774
-0,00596948738561715
-0,0058404128843804
-0,00584162072839996
-0,00596780111215821
-0,00620575882297669
-0,00653515423450963
-0,00692965030187762
-0,00735838051144211
-0,00778763829067696
-0,00818268230379939
-0,00850955396277747
-0,00873681225081065
-0,00883710497126425
-0,00878851282548249
-0,00857562123953809
-0,0081902927068364
-0,00763212804965733
-0,00690861739652798
-0,00603499040171944
-0,00503378047422464
-0,00393412028236962
-0,00277078667116638
-0,0015830137675727
-0,000413094767221176
0,000695203105866103
0,00169837902306049
0,00255505280155371
0,00322787866144789
0,00368544984317379
0,0039041112135619
0,00386958492844803
0,00357830647045487
0,00303836706048279
0,00226996519805601
0,00130528597124235
0,000187751974699199
-0,00102937659882077
-0,00228503462210981
-0,00351295478828492
-0,00464473248408043
-0,00561320261793599
-0,00635594311585944
-0,00681869536569337
-0,00695848120140574
-0,00674620107876219
-0,0061685197305334
-0,00522888322416863
-0,00394756299477119
-0,00236068482575889
-0,00051826950032315
0,00151861810026557
0,0036814488201769
0,00589831893628182
0,00809828852282525
0,0102156829750056
0,0121940682508946
0,0139896275701308
0,0155737047811551
0,0169343348864862
0,0180766513865652
0,0190221380955511
0,0198067741008541
0,0204781985066193
0,0210920906279832
0,0217080162351676
0,0223850271412919
0,023177317238814
0,0241302319152434
0,0252769002645363
0,0266357128824549
0,028208805982524
0,0299816398901893
0,0319236822128752
0,0339901289735036
0,0361245264310191
0,0382620972332431
0,0403335311119895
0,0422689753103807
0,0440019547419258
0,0454729663157425
0,0466325242977566
0,0474434810207781
0,0478825056902436
0,0479406687060973
0,0476231447444948
0,0469481098109846
0,045944961022152
0,0446520292221928
0,0431139809995127
0,0413791167568447
0,0394967650819877
0,0375149519094916
0,0354784881801667
0,0334275751959688
0,0313969765696771
0,0294157539024723
0,0275075143839025
0,0256910763596861
0,0239814268569836
0,0223908255164804
0,0209299036598047
0,0196086155067412
0,0184369198509978
0,0174251027034466
0,0165836916264808
0,0159229570578272
0,0154520409558145
0,0151777946229265
0,0151034419110069
0,015227208141569
0,0155410667670929
0,0160297538778333
0,0166701851009065
0,0174313813230554
0,0182749711622798
0,0191562922735357
0,0200260640770765
0,0208325553969998
0,0215241258586198
0,0220519834638449
0,0223729756833467
0,022452219932621
0,022265382622078
0,0218004340961255
0,0210587385484874
0,0200553811374114
0,0188186858586042
0,0173889334004784
0,0158163439997203
0,0141584420068393
0,0124769625283125
0,010834492841134
0,00929105987363319
0,00790087855241092
0,0067094640737706
0,00575128515216787
0,0050480971182155
0,00460804635642933
0,00442558463215904
0,00448217735179993
0,00474773776258393
0,00518267329125828
0,00574039381971329
0,00637010709683136
0,00701971508678437
0,00763862721365378
0,00818032148359073
0,00860451067941475
0,00887880575735946
0,00897980920532154
0,00889361406695373
0,00861572623950706
0,00815046534266475
0,00750993031568702
0,0067126379465949
0,00578195463491165
0,00474444358732999
0,00362824193796815
0,00246156632733592
0,00127142329991932
8,25748346381943E-05
-0,00108321794814141
-0,00220767585699191
-0,00327623286692488
-0,0042780600253837
-0,00520593510078012
-0,00605601464350333
-0,00682756193312632
-0,00752267522262051
-0,00814604716825214
-0,00870477021852191
-0,00920818601467704
-0,00966776158984857
-0,0100969631379283
-0,0105110907905879
-0,0109270361036205
-0,0113629281213431
-0,011837643603307
-0,0123701713649691
-0,0129788382369375
-0,0136804230821216
-0,0144892036339494
-0,0154159965968358
-0,0164672626710109
-0,0176443534561142
-0,0189429755908264
-0,0203529386413859
-0,0218582374783738
-0,0234374980944019
-0,0250647895759233
-0,0267107762213599
-0,0283441549193082
-0,0299332962952704
-0,0314479861836322
-0,0328611487714413
-0,0341504259769045
-0,0352994903154887
-0,0362989810278168
-0,0371469752137372
-0,0378489359464794
-0,0384171159557376
-0,0388694360032941
-0,0392278985986597
-0,039516637053301
-0,0397597339056836
-0,0399789684834313
-0,0401916683564998
-0,0404088418414158
-0,0406337576069142
-0,0408611128066321
-0,0410768940922896
-0,0412589883933051
-0,0413785454929902
-0,041402035917425
-0,0412938897404837
-0,0410195490853438
-0,0405487237235642
-0,039858609156251
-0,0389368130364433
-0,0377837407969922
-0,0364142156166302
-0,0348581506866183
-0,0331601509133623
-0,0313779931294738
-0,0295800137617217
-0,0278415150448258
-0,0262403790662667
-0,0248521469730407
-0,0237448728214932
-0,0229740930129412
-0,0225782596358204
-0,0225749676925468
-0,0229582624309283
-0,0236972461932621
-0,024736118652103
-0,0259956860121025
-0,027376270982824
-0,0287618540942283
-0,0300251862931422
-0,0310335402889602
-0,0316547200979816
-0,0317629291611563
-0,0312441095544934
-0,0300004078679684
-0,0279534944177258
-0,0250465562463222
-0,0212448934021076
-0,0165351633245635
-0,0109234300310542
-0,00443227342267215
0,00290270947510437
0,0110366323997291
0,0199188850466749
0,0294961671029226
0,0397146810671597
0,0505212629642848
0,0618633426995019
0,0736877523178151
0,085938529598618
0,0985539843276334
0,111463393712803
0,124583761609763
0,137817105713988
0,151048723030363
0,164146825807323
0,176963840680264
0,189339529812469
0,20110593451547
0,212093971961791
0,222141348570747
0,231101304280308
0,238851584156419
0,245302959527929
0,250406598727421
0,25415962217136
0,256608267935343
0,257848237401596
0,258021976655175
0,257312864910886
0,255936510215171
0,254129577219383
0,25213677395075
0,250196787454301
0,2485280678361
0,247315406421008
0,246698231012515
0,246761449556106
0,247529518239473
0,248964201680223
0,250966246147261
0,253380919750663
0,256007105962494
0,258609388724222
0,260932357383737
0,262716203584147
0,263712591692172
0,263699766112983
0,262495914029629
0,259969926337501
0,256048883193601
0,250721819671842
0,244039584252588
0,236110869193246
0,227094747754593
0,217190280539764
0,206623936104075
0,195635697505273
0,184464789090017
0,173335954047653
0,16244714557433
0,15195937000653
0,141989250024516
0,132604673938853
0,123823678805609
0,115616496792218
0,107910491128753
0,10059753352811
0,0935432397030725
0,0865973906589274
0,0796048281149935
0,0724161222648223
0,0648973651765625
0,0569385365894378
0,048460011617599
0,0394169215150581
0,029801228329614
0,0196415214948043
0,0090006798636546
-0,0020283413034486
-0,0133282478482212
-0,0247642554388281
-0,0361916028578457
-0,0474632782593286
-0,0584375276021012
-0,068984757113267
-0,0789935013518403
-0,0883752001243499
-0,0970676060754438
-0,105036725518805
-0,112277273864772
-0,118811700446428
-0,124687903006103
-0,129975807651479
-0,134763034452861
-0,13914990123698
-0,143244038177035
-0,147154893394338
-0,150988405145821
-0,154842099654147
-0,158800845889344
-0,162933460542204
-0,16729030936521
-0,171901996709514
-0,176779175641145
-0,181913449169649
-0,187279271892758
-0,192836704117537
-0,198534820714179
-0,204315537908981
-0,210117595861377
-0,21588042551712
-0,221547636239028
-0,227069886422471
-0,232406941766765
-0,237528782923325
-0,242415692516541
-0,247057326653864
-0,251450852892599
-0,255598309705663
-0,259503406289009
-0,263168031037484
-0,266588767995553
-0,269753730072155
-0,27264000437
-0,275211968786933
-0,277420682060681
-0,279204475210663
-0,280490785850638
-0,281199184152896
-0,28124544704319
-0,280546452306825
-0,279025593174024
-0,27661836223286
-0,273277725474935
-0,268978905575276
-0,263723218896316
-0,257540662002154
-0,250491017534513
-0,242663341347563
-0,234173796600596
-0,225161908949143
-0,215785422472581
-0,206214031108645
-0,196622338300968
-0,187182452709492
-0,178056656083892
-0,169390578577308
-0,161307286725288
-0,153902631939919
-0,147242126527534
-0,141359515448055
-0,136257102111315
-0,131907773052372
-0,128258557233792
-0,125235458541719
-0,122749221531821
-0,120701636002906
-0,118991959252883
-0,117523037550216
-0,116206740037303
-0,114968376435919
-0,113749850145464
-0,112511394582203
-0,111231845786848
-0,109907510629115
-0,108549789587919
-0,10718179880854
-0,10583430176372
-0,104541301771714
-0,10333566010607
-0,102245089887163
-0,101288834888633
-0,100475278397312
-0,099800645625828
-0,0992488705452124
-0,0987926017739602
-0,0983952300221158
-0,0980137387469683
-0,0976021164560589
-0,0971150282817363
-0,0965114290431832
-0,0957578108968628
-0,0948308146222371
-0,0937189913324367
-0,0924235759412941
-0,0909582187148268
-0,0893477095601999
-0,087625814020332
-0,0858324132853333
-0,0840101969470991
-0,0822011921627607
-0,0804434236599486
-0,0787679849330293
-0,0771967634279706
-0,0757410048349038
-0,0744008287762071
-0,0731657264052989
-0,072015986613593
-0,0709249187180236
-0,0698616722195919
-0,0687944040608872
-0,0676935148581825
-0,0665346701694149
-0,065301341340041
-0,0639866412143385
-0,0625942895595982
-0,061138616440542
-0,0596435928942838
-0,0581409603742681
-0,056667606821941
-0,0552624015805378
-0,053962748455143
-0,0528011422002204
-0,0518020164518034
-0,0509791504005448
-0,0503338589757794
-0,0498541303793471
-0,0495148003399372
-0,049278770389154
-0,0490991943066623
-0,0489224792279659
-0,0486918819145523
-0,048351431532716
-0,0478498818799637
-0,0471443905522884
-0,0462036405488508
-0,0450101598462845
-0,0435616535266377
-0,0418712365107708
-0,0399665372662876
-0,0378877276629387
-0,035684615012341
-0,0334130030606686
-0,0311305839569363
-0,0288926587958389
-0,0267479975934232
-0,0247351395022789
-0,0228794015429655
-0,0211908116133412
-0,0196631130798209
-0,01827390904873
-0,0169859305173778
-0,0157493303468455
-0,0145048306332081
-0,0131874901577468
-0,0117308157754411
-0,0100709199759476
-0,0081504280162048
-0,00592186171038594
-0,0033502712569318
-0,000414947783655952
0,00288987723202963
0,00655535973421349
0,0105593323384146
0,0148684159168068
0,0194407531262792
0,0242291192996637
0,0291841425109795
0,0342573634588185
0,0394038871403362
0,0445844202898319
0,049766547748729
0,0549251722968664
0,0600421200153264
0,0651049903261859
0,070105399818885
0,0750368256928251
0,0798922930435953
0,0846621666851943
0,0893323009907584
0,0938827706016107
0,0982873530865621
0,102513865924234
0,106525380282177
0,110282249821513
0,113744811579251
0,116876545169762
0,119647422679654
0,122037149953664
0,124037993960429
0,125656911813012
0,126916743831786
0,127856302383852
0,128529274779478
0,129001955204389
0,129349919456919
0,129653848688571
0,129994786315032
0,130449168740545
0,131084000201216
0,131952541747624
0,133090853547616
0,134515470278288
0,136222405895149
0,138187583086973
0,140368672460247
0,142708216020436
0,145137808026086
0,147583022306717
0,149968715764192
0,152224308053203
0,154288639951557
0,156114047483574
0,157669352599722
0,158941558785841
0,159936143997421
0,160675955101246
0,16119881820122
0,161554078699422
0,161798365586976
0,16199092976942
0,162188932049326
0,162443050994667
0,162793745401762
0,163268443956982
0,16387985183079
0,164625467735064
0,165488303891237
0,166438704058104
0,167437069395692
0,168437235385025
0,169390200396772
0,170247890648644
0,170966657694407
0,171510241278884
0,171851988296163
0,171976191846629
0,171878495993553
0,171565394272212
0,171052925948732
0,17036473697126
0,169529717412104
0,168579450673941
0,167545710619284
0,166458221983313
0,165342859797819
0,164220409611161
0,163105947710441
0,162008835640181
0,16093326237016
0,159879216220856
0,158843731712121
0,157822236981482
0,156809826640003
0,155802302402717
0,154796857265642
0,153792324636473
0,152788966799408
0,151787831899537
0,150789759715962
0,149794158738547
0,148797706314929
0,147793137024281
0,14676828072959
0,145705491339687
0,144581572200795
0,143368257664216
0,142033257192004
0,140541813473605
0,138858674636305
0,136950337621758
0,134787389190027
0,132346755702655
0,129613674241019
0,126583215661863
0,123261223248558
0,119664575739955
0,115820736713384
0,111766608859879
0,107546766737301
0,103211190363681
0,0988126604559103
0,0944040010801474
0,0900353650648065
0,0857517511861844
0,0815909207151298
0,0775818465025617
0,0737437835383169
0,0700859997691497
0,066608154171637
0,0633012600036592
0,0601491287419808
0,057130157740148
0,0542193044906629
0,0513900837602549
0,0486164309103189
0,04587429434245
0,0431428501545558
0,0404052699200667
0,0376490145579593
0,0348656699408706
0,0320503795846583
0,029200963239973
0,0263168348879404
0,0233978476468772
0,0204431956012389
0,0174504935810516
0,0144151365169284
0,0113300119853598
0,00818560546621709
0,00497050063581283
0,00167223985266712
-0,00172152397846743
-0,00522168097105418
-0,00883623973360578
-0,0125689510001225
-0,016418104710509
-0,0203756142470429
-0,0244264802736022
-0,0285486974231462
-0,0327136323293442
-0,0368868640878978
-0,0410294412090103
-0,0450994756241942
-0,0490539670905383
-0,0528507327454596
-0,0564503081795695
-0,059817688977606
-0,062923795055828
-0,0657465631862615
-0,0682716039022813
-0,0704923948593169
-0,0724100205610295
-0,0740325048031931
-0,0753738139779175
-0,0764526336424864
-0,0772910352594772
-0,0779131534048933
-0,0783439856968453
-0,078608408946492
-0,078730477390146
-0,0787330349794469
-0,0786376369512822
-0,0784647399631098
-0,0782340886727257
-0,077965203116042
-0,0776778582420906
-0,0773924461536254
-0,0771301234411293
-0,0769126696714038
-0,0767620165140084
-0,0766994470113276
-0,0767445071130853
-0,076913712384584
-0,0772191672925842
-0,0776672386338942
-0,0782574353473285
-0,0789816421529834
-0,079823833726945
-0,080760360548218
-0,0817608497974065
-0,0827897087965775
-0,0838081595084365
-0,084776676215617
-0,0856576503848232
-0,0864180720691166
-0,087032000194179
-0,0874825973503792
-0,0877635291388803
-0,0878795725300034
-0,0878463389898893
-0,0876890914378587
-0,0874407131870202
-0,0871389648301595
-0,0868232343083768
-0,0865310393883728
-0,0862945748396541
-0,0861376048713977
-0,0860729830913814
-0,0861010380433994
-0,0862089953109408
-0,0863715225098368
-0,0865523882826732
-0,0867071288949695
-0,086786524922399
-0,0867406141830353
-0,0865229127566047
-0,0860944891071404
-0,0854275400506883
-0,0845081519860836
-0,0833379940097923
-0,0819347762331482
-0,0803314095382212
-0,0785739132745913
-0,0767182253542574
-0,0748261652011759
-0,0729608754065995
-0,0711821157703062
-0,0695417991769996
-0,0680801407536983
-0,0668227413372307
-0,0657788477194478
-0,0649409322476388
-0,0642856219379593
-0,0637758922300812
-0,0633643330724883
-0,0629972046943788
-0,062618935148357
-0,0621766772037063
-0,0616245413130531
-0,0609271540260221
-0,0600622542036845
-0,0590221267932115
-0,0578137777168167
-0,0564578641411858
-0,0549865020545382
-0,053440168102224
-0,0518639867134416
-0,0503037404147005
-0,0488019571577052
-0,0473944126650465
-0,0461073402927547
-0,044955570475119
-0,0439417333668175
-0,0430565602680113
-0,0422802208900299
-0,0415845434540021
-0,0409358909228981
-0,0402984155911135
-0,0396373897825822
-0,0389223139505601
-0,0381295338766331
-0,0372441522753375
-0,036261091324552
-0,0351852443524802
-0,0340307393235107
-0,0328194160818343
-0,0315786864645412
-0,0303389957233762
-0,0291311313164564
-0,0279836293795715
-0,0269205105223883
-0,0259595376227284
-0,0251111333200404
-0,0243780295539143
-0,0237556520806765
-0,0232331758396907
-0,0227951282771549
-0,0224233721718177
-0,0220992706840616
-0,0218058271016725
-0,0215296002256847
-0,0212622219772687
-0,0210013836484637
-0,0207512072118312
-0,0205219735005061
-0,0203292349645856
-0,020192392345999
-0,0201328579366972
-0,020171959911589
-0,0203287605370957
-0,0206179650624625
-0,0210480881795819
-0,0216200226064609
-0,0223261219259646
-0,0231498702831581
-0,0240661681851393
-0,0250422197875275
-0,0260389657983218
-0,0270129701653295
-0,0279186401363451
-0,0287106395290994
-0,0293463448759845
-0,0297881935840535
-0,0300057819094383
-0,0299775873679504
-0,0296922138807572
-0,0291490868628772
-0,0283585578553081
-0,0273414124145183
-0,0261278089763755
-0,0247557086588974
-0,0232688848277697
-0,0217146253138976
-0,0201412582153054
-0,018595643185299
-0,0171207733269169
-0,0157536278162028
-0,0145234021739905
-0,0134502220821154
-0,0125444186439565
-0,0118064093818326
-0,0112271917995608
-0,0107894172203248
-0,0104689742905526
-0,0102369766245557
-0,0100620201460324
-0,0099125550833911
-0,00975920721085659
-0,00957688405533488
-0,00934651489271622
-0,00905629801015249
-0,00870236355499111
-0,00828880307932033
-0,00782706460882961
-0,00733476114336051
-0,00683398706009378
-0,0063492771136812
-0,0059053731072268
-0,00552498105384081
-0,00522670488578671
-0,00502333080984575
-0,00492060982316845
-0,00491664652070166
-0,0050019531474571
-0,00516017278688171
-0,0053694191686713
-0,00560412759003906
-0,00583726644982932
-0,00604272588557885
-0,00619768200175374
-0,00628473396426386
-0,00629362716089585
-0,00622240756116077
-0,00607789782647844
-0,00587544089200721
-0,00563791707348358
-0,00539410116549846
-0,0051764813871567
-0,00501870770247421
-0,00495286913699752
-0,00500681552234107
-0,00520173733843176
-0,00555019816755743
-0,00605477941098435
-0,00670744931924283
-0,00748971205194897
-0,00837353212357292
-0,00932297010324662
-0,0102964116309082
-0,0112492278362149
-0,0121366743960718
-0,0129168208332505
-0,0135533020402645
-0,0140176998847721
-0,0142913923684
-0,0143667483907977
-0,0142475942140875
-0,0139489293107871
-0,0134959204349726
-0,0129222498017789
-0,0122679330393635
-0,011576752764815
-0,0108934727625817
-0,0102610053236223
-0,00971770072639241
-0,0092949142646635
-0,00901498440103661
-0,00888972765409852
-0,00891952396690244
-0,00909303275133142
-0,00938754651343555
-0,0097699575541083
-0,0101982849232685
-0,0106236843864244
-0,010992844092743
-0,0112506531037607
-0,0113430189629896
-0,0112197040262313
-0,0108370483059406
-0,010160449157649
-0,00916647539729492
-0,00784450554296041
-0,00619779699129231
-0,00424391506919425
-0,00201447783090032
0,000445796377638228
0,00308071717999136
0,00582486868678693
0,00860638063878546
0,0113500968121459
0,0139809843555691
0,0164276059465821
0,018625464295401
0,0205200273145584
0,0220692533208979
0,023245459137355
0,0240364091964206
0,0244455489544128
0,024491358446829
0,0242058582022115
0,0236323560064808
0,022822574977743
0,021833346993592
0,0207230871166995
0,0195482814994155
0,0183602216061787
0,0172022010288321
0,0161073585926261
0,0150973050592713
0,0141816139068182
0,0133581936592548
0,0126144948866277
0,0119294442734581
0,0112759458069055
0,0106237492434216
0,00994246167956517
0,00920447111780861
0,00838756181817909
0,00747702897343994
0,0064671424723538
0,00536186274081386
0,00417477151055602
0,00292824203736438
0,00165193185086455
0,000380731977136446
-0,000847654177112504
-0,00199530435464421
-0,00302663693818203
-0,00391073798413378
-0,00462328100541493
-0,00514790172307937
-0,00547693718114509
-0,00561149197421371
-0,00556084949603991
-0,00534129862337238
-0,0049744919579301
-0,00448548712883029
-0,00390064503729268
-0,00324556673642977
-0,00254324344074704
-0,00181257273640095
-0,00106736026737782
-0,000315882833705557
0,000438960521882717
0,00119893424581341
0,00196926293077016
0,00275705624581255
0,00356951319825961
0,00441207817908632
0,00528672850687964
0,00619056554425486
0,00711485931564205
0,00804466141644164
0,00895905541816559
0,00983206135979263
0,0106341552901279
0,0113343105735092
0,0119024191483663
0,0123119122020377
0,0125423741927707
0,0125819342971864
0,012429226503648
0,0120947337456824
0,0116013713356603
0,0109842179091476
0,0102893643565809
0,00957191816631738
0,00889326704964586
0,00831776634166091
0,00790906443231322
0,00772631505312969
0,00782054139885937
0,00823141294522519
0,00898467123286745
0,0100903972365631
0,0115422533129208
0,0133177615698737
0,0153796033634905
0,0176778476797597
0,020152945684495
0,0227392705967502
0,025368941225273
0,0279756475473123
0,0304981994734762
0,0328835453467883
0,0350890527639418
0,0370839071569705
0,0388495579275827
0,0403792214196886
0,0416765278088573
0,0427534683343377
0,0436278541959906
0,0443205341350204
0,0448526311812587
0,0452430492434553
0,0455064682057968
0,0456519950547787
0,0456825731108431
0,0455951777917812
0,0453817523359025
0,0450307675010526
0,0445292318127567
0,0438649387001111
0,0430287174121233
0,0420164575676862
0,0408307020404379
0,0394816470296229
0,03798744722283
0,0363737921217535
0,0346727902610636
0,0329212644046762
0,0311586164942488
0,0294244609050327
0,0277562447232634
0,0261870725388666
0,0247439309502795
0,0234464669654756
0,0223064188889637
0,0213277336648131
0,0205073373538692
0,0198364620720649
0,0193023794645847
0,0188903527928072
0,0185856006073582
0,0183750665542182
0,0182488118755027
0,0182008873984182
0,0182295962826861
0,0183371221434151
0,0185285632074369
0,0188104754145948
0,0191890797796157
0,019668326725944
0,0202480288076598
0,0209222713101689
0,0216782877222259
0,0224959459834047
0,0233479354934746
0,0242006792831795
0,0250159265834186
0,025752914723838
0,0263709320641503
0,0268320708937753
0,0271039350253987
0,0271620635750342
0,0269918506747109
0,0265897792000238
0,0259638417773418
0,0251330896275028
0,0241263233562955
0,0229800132262536
0,0217356033039298
0,0204364083314993
0,0191243494318472
0,0178367915162204
0,0166037399961928
0,0154456274570307
0,0143718745426568
0,0133803472930312
0,0124577607533253
0,011581001872222
0,0107192699418448
0,0098368662791293
0,00889641200479065
0,00786223794198539
0,00670367660551946
0,00539799402944299
0,00393272799733629
0,0023072465997142
0,000533402929590151
-0,00136476699429331
-0,00335228118331112
-0,00538528933292971
-0,00741383298913399
-0,00938507929393725
-0,0112467856974611
-0,0129507387660773
-0,0144559160918014
-0,0157311453979262
-0,016757076771112
-0,0175273387969094
-0,0180488125337497
-0,0183410235340757
-0,0184347162092099
-0,0183697318433991
-0,0181923573092585
-0,017952342971756
-0,0176998035827415
-0,0174822147722524
-0,0173417009619536
-0,0173127803218587
-0,0174206918469518
-0,0176803825004155
-0,0180961826717812
-0,0186621498937549
-0,0193630174006368
-0,0201756485706824
-0,0210708725816628
-0,0220155617763761
-0,0229748073356667
-0,0239140560903517
-0,0248010861185312
-0,0256077201218848
-0,0263112011067705
-0,0268951822683903
-0,0273503099774433
-0,0276744035874556
-0,0278722570343513
-0,0279551040540218
-0,0279398009508473
-0,0278477883295277
-0,0277038964899062
-0,0275350589738258
-0,0273689957875185
-0,027232922875637
-0,0271523381258815
-0,027149927048238
-0,0272446236247086
-0,02745085387686
-0,0277779815357817
-0,0282299669177682
-0,0288052417866169
-0,0294967948270759
-0,0302924546110678
-0,0311753500128847
-0,0321245223237653
-0,0331156592877236
-0,0341219192602944
-0,0351148138969806
-0,0360651201631254
-0,0369437967501863
-0,0377228856005108
-0,0383763854013301
-0,0388810896315793
-0,0392173860410796
-0,03937001638817
-0,0393287941773924
-0,0390892737225961
-0,038653356249856
-0,0380298086240319
-0,0372346587924534
-0,03629142077836
-0,0352310928722913
-0,0340918675150378
-0,0329184919946708
-0,0317612269021734
-0,0306743650467679
-0,0297142972091125
-0,0289371417825214
-0,0283959911907403
-0,0281378663291135
-0,0282005078857177
-0,0286091666264558
-0,0293735799207227
-0,0304853356624518
-0,0319158247035176
-0,0336149674418675
-0,0355108690115572
-0,0375105117673191
-0,0395015359675731
-0,0413550935695016
-0,0429296906351789
-0,0440758664324533
-0,0446414974106234
-0,0444774670205174
-0,0434434121174862
-0,0414132464254993
-0,0382801726223821
-0,03396092655468
-0,0283990476265861
-0,0215670345264929
-0,0134673198282014
-0,00413207437218679
0,00637807387072748
0,0179762578499884
0,0305523291801663
0,0439763290670017
0,0581022380765598
0,0727717841835231
0,0878181218836794
0,10306924412742
0,118351047866217
0,133490036482884
0,148315701254376
0,162662672519559
0,176372763624203
0,189297042818441
0,201298058019742
0,212252306996702
0,222052993801249
0,230613046129592
0,237868294514751
0,243780640858733
0,248340979283584
0,251571584746364
0,253527661267921
0,254297747001366
0,254002710213398
0,252793138222662
0,250845017045604
0,248353716764806
0,245526427839766
0,242573326398885
0,239697870741693
0,237086735708645
0,234899966106874
0,23326196691178
0,232253941086417
0,231908333506105
0,232205743143005
0,233074630455764
0,234393981183476
0,235998902514923
0,237688935758967
0,239238684957941
0,240410196904935
0,2409663970707
0,240684798086331
0,239370659760133
0,236868795623503
0,233073290397248
0,227934511384924
0,221462957007373
0,213729676904938
0,204863207561687
0,195043181321513
0,184490970869776
0,173457912423505
0,162211797412106
0,151022425196688
0,140147062299807
0,129816653975273
0,120223582504302
0,111511667436468
0,103768963118085
0,0970237376845672
0,0912438263741437
0,0863393526190707
0,0821686151257487
0,0785467597022916
0,0752567012634295
0,0720616427022872
0,06871845931986
0,0649911838027036
0,0606638381803674
0,0555519139514909
0,0495118953399359
0,0424483469625485
0,0343182378840349
0,0251323397040237
0,0149537069345813
0,00389341339320011
-0,00789613090675196
-0,0202298303358734
-0,0328999722793877
-0,0456871021967086
-0,0583710693075362
-0,070741621420165
-0,0826079783796199
-0,0938068971395482
-0,104208851540896
-0,113722078932838
-0,122294385186006
-0,129912740276938
-0,136600829446568
-0,142414841599397
-0,147437870007222
-0,151773365082213
-0,155538111643043
-0,158855202582668
-0,161847448363557
-0,164631600704055
-0,167313684499424
-0,169985631272416
-0,172723298142392
-0,175585846707984
-0,178616354467782
-0,181843444786408
-0,185283655989148
-0,188944230237273
-0,192825990680022
-0,196925991115938
-0,201239663984845
-0,20576225596647
-0,210489420135391
-0,215416922716207
-0,220539513507918
-0,225849094488747
-0,23133239392779
-0,236968407582469
-0,242725899773756
-0,248561262743025
-0,254417012146851
-0,260221151427574
-0,265887571622362
-0,271317571208768
-0,276402489347374
-0,281027352719751
-0,28507534859189
-0,288432861943974
-0,290994758697994
-0,292669565018386
-0,293384187289997
-0,293087839532317
-0,291754893351195
-0,289386436629529
-0,286010415742655
-0,281680335418682
-0,276472592811792
-0,270482619930611
-0,263820093607461
-0,256603537962948
-0,248954685562327
-0,240992976833953
-0,232830561695159
-0,224568123898322
-0,216291780800784
-0,208071224496028
-0,199959171481695
-0,191992085260777
-0,184192037769177
-0,176569489274216
-0,169126699353086
-0,161861439119459
-0,154770660340322
-0,14785379148814
-0,141115372661536
-0,134566806957468
-0,128227089541166
-0,122122470093221
-0,116285101352228
-0,110750817781798
-0,105556266127598
-0,100735667160893
-0,0963175203724782
-0,0923215680994778
-0,0887563123009422
-0,0856173281317558
-0,0828865480546004
-0,0805326047464831
-0,0785122281144887
-0,0767725995171006
-0,0752544829029171
-0,0738958852883131
-0,0726359536074012
-0,0714187952960868
-0,0701969175304674
-0,0689340139197236
-0,0676068843960672
-0,0662063487966181
-0,0647371003770736
-0,0632165345590405
-0,0616726726550119
-0,0601413727888135
-0,0586630745002089
-0,0572793551416503
-0,056029582772322
-0,0549479317958518
-0,0540609862869403
-0,0533860960891611
-0,0529305782186049
-0,0526917778005293
-0,0526579260251768
-0,0528096644303204
-0,0531220512793229
-0,0535668314435089
-0,0541147386897156
-0,054737609120005
-0,0554101151346401
-0,0561109771230597
-0,0568235700239276
-0,0575359077698992
-0,05824005383259
-0,0589310642156709
-0,0596056147186671
-0,0602604928986178
-0,0608911443686742
-0,0614904523846907
-0,062047900494133
-0,062549223617479
-0,0629765980030774
-0,063309360744512
-0,0635251910802171
-0,0636016344263619
-0,0635178111861497
-0,0632561297050246
-0,0628038185644644
-0,0621541081311967
-0,0613069234629717
-0,0602689971438062
-0,0590533668496384
-0,0576782829291237
-0,0561656101498612
-0,0545388592768436
-0,0528210233165624
-0,0510324162520672
-0,0491887166350837
-0,0472994039487835
-0,0453667434641949
-0,0433854282825535
-0,0413429296454336
-0,0392205436442211
-0,0369950598621964
-0,0346409208754589
-0,0321326959993408
-0,0294476622418241
-0,0265682727888737
-0,0234842995751473
-0,020194461019439
-0,0167073866312675
-0,0130418234124665
-0,00922605018685262
-0,00529653003054927
-0,00129589246941706
0,00272960895242207
0,00673297609480774
0,0106694680941923
0,0144995013317499
0,0181912309167256
0,0217226215480473
0,0250828545049177
0,0282729675355176
0,0313056814745572
0,034204427014811
0,0370016426235187
0,0397364658787232
0,0424519818626334
0,0451922209492938
0,0479991126250765
0,0509096013123328
0,053953115032448
0,0571495497026135
0,0605078932964069
0,0640255680696193
0,0676885189918483
0,0714720260121302
0,0753421702882405
0,0792578431331793
0,0831731537685205
0,0870400699109802
0,0908111148908328
0,0944419467099384
0,0978936577193867
0,101134657201051
0,104142031226069
0,106902312380233
0,109411633610825
0,111675282705578
0,113706713935096
0,115526108546452
0,117158603798835
0,118632329314709
0,119976398507399
0,121219001257375
0,122385732074975
0,123498266650674
0,12457347054615
0,125622988941805
0,126653328394065
0,12766640321379
0,128660483198896
0,129631448663314
0,130574235324209
0,131484337376591
0,132359233119144
0,133199604105857
0,134010235534548
0,134800511198136
0,135584448880223
0,136380259109062
0,137209448829845
0,13809552884499
0,139062416887056
0,140132654353925
0,141325571975358
0,142655546619104
0,144130487495744
0,14575067544788
0,147508054900613
0,149386046228751
0,151359909180995
0,153397648418693
0,155461413150889
0,157509307229482
0,159497496521671
0,161382479062355
0,163123371868518
0,16468406711127
0,166035119491556
0,16715524530484
0,168032340255341
0,168663955492471
0,169057207137202
0,169228131103942
0,169200529746695
0,169004387422466
0,168673956577077
0,168245633031574
0,167755748048529
0,167238405358002
0,166723484103164
0,16623491463197
0,165789314580241
0,165395049411497
0,165051756209549
0,164750343739454
0,164473457083478
0,164196372757559
0,163888270996131
0,163513816441571
0,163034967026275
0,162412923374051
0,16161012739369
0,160592218580299
0,159329859552799
0,157800348256373
0,155988942806137
0,153889835985196
0,151506729838957
0,148852976491055
0,145951269078067
0,142832886232857
0,13953651431683
0,136106692861368
0,132591949425076
0,129042709089568
0,125509079758917
0,122038625908278
0,11867424915037
0,115452292947648
0,112400980330749
0,109539277486109
0,106876253030224
0,104410973811745
0,102132944888505
0,100023066153616
0,0980550434842574
0,0961971609854189
0,0944142955055454
0,0926700373785516
0,0909287740001862
0,0891575963019288
0,0873279024838417
0,0854165976160697
0,0834068201174533
0,0812881641024059
0,0790564070281558
0,0767127915461897
0,0742629455558701
0,071715552096182
0,0690808984331437
0,0663694399143447
0,0635905083190388
0,0607512770558259
0,0578560682881279
0,0549060524253524
0,0518993516651155
0,0488315200552766
0,0456963365810204
0,0424868184754475
0,0391963421057531
0,0358197502722517
0,0323543283832241
0,0288005473417097
0,0251624965772667
0,0214479639208661
0,0176681566446012
0,0138370961932286
0,00997075405888102
0,00608602432902968
0,00219964672420655
-0,00167279952009132
-0,00551771665873701
-0,00932402833175349
-0,0130833711900101
-0,016789907771932
-0,020439771128428
-0,0240301929034458
-0,0275584038692894
-0,0310204254138727
-0,0344098889942205
-0,0377170259145862
-0,0409279610063871
-0,0440244212805763
-0,0469839361126471
-0,0497805619670036
-0,0523861159141423
-0,0547718527341567
-0,0569104748398363
-0,0587783269848762
-0,060357602411495
-0,061638376387791
-0,0626202883160386
-0,063313714634536
-0,0637403100146446
-0,0639328409548966
-0,0639342898418861
-0,0637962641884162
-0,0635768001554606
-0,0633376968425535
-0,0631415540969839
-0,0630487086453515
-0,0631142694072605
-0,0633854426074804
-0,0638993119281959
-0,0646812009994346
-0,0657436986489802
-0,0670863759518962
-0,0686961729360337
-0,0705483863885914
-0,0726081525577824
-0,0748322926447251
-0,0771713766103338
-0,0795718623140389
-0,0819781813199168
-0,0843346675149518
-0,0865872566575794
-0,0886849201578503
-0,0905808306079481
-0,0922332859355441
-0,0936064403027106
-0,0946709008015087
-0,0954042486621339
-0,0957915324997483
-0,0958257608187217
-0,0955083944194802
-0,0948498101928289
-0,0938696801040292
-0,0925971869834408
-0,0910709855439491
-0,0893388154052348
-0,0874566841429754
-0,0854875623619529
-0,0834995679365957
-0,0815636598938921
-0,0797509099193851
-0,0781294663917069
-0,0767613672839285
-0,0756993895502185
-0,0749841399241193
-0,0746415927741163
-0,0746812637081288
-0,0750951736256562
-0,0758577091558211
-0,0769264257061847
-0,0782437736088576
-0,0797396617364866
-0,0813347122520206
-0,0829440102315941
-0,0844811171880692
-0,0858621010758555
-0,0870093385447902
-0,0878548675706994
-0,0883431078979505
-0,0884328191949341
-0,0880982275019157
-0,0873293137917381
-0,0861313185498459
-0,0845235678916523
-0,0825377655823644
-0,080215918472814
-0,0776080690424498
-0,0747699984490661
-0,0717610388423027
-0,0686420982790781
-0,0654739598971742
-0,0623158741110111
-0,0592244234482829
-0,0562526086301829
-0,0534490849179215
-0,0508574715013402
-0,0485156640806869
-0,0464551004507916
-0,04469995804768
-0,0432662971045704
-0,0421611986507314
-0,0413819782417522
-0,040915579576691
-0,0407382634441809
-0,0408157044552494
-0,0411035900281253
-0,0415487840599799
-0,0420910742324764
-0,0426654709203486
-0,0432049721771384
-0,0436436587141407
-0,0439199405790012
-0,0439797481295092
-0,0437794475403608
-0,04328826754707
-0,0424900497429474
-0,0413841779274119
-0,0399855994565647
-0,0383239184904494
-0,0364416116719019
-0,0343914848383199
-0,0322335487040222
-0,0300315366238282
-0,0278493143676236
-0,0257474377465587
-0,0237800983257014
-0,0219926616674533
-0,0204199497937713
-0,0190853546087437
-0,0180007977693325
-0,0171674813839282
-0,0165773093640226
-0,0162148069997267
-0,0160593309617129
-0,0160873464129016
-0,0162745533468143
-0,0165976698012755
-0,0170357225081634
-0,0175707515376653
-0,0181878991126851
-0,0188749179025133
-0,0196211945845293
-0,0204164346350863
-0,0212491895477513
-0,022105424801775
-0,0229673244469472
-0,0238125064968238
-0,0246137845610925
-0,0253395589474089
-0,0259548596841961
-0,0264230001026491
-0,026707738540785
-0,0267757928587311
-0,0265995124187076
-0,0261594885020906
-0,0254468788013612
-0,0244652350864019
-0,0232316542453707
-0,021777119016564
-0,0201459521046837
-0,0183943713716396
-0,0165881993799316
-0,0147998427088518
-0,013104710499934
-0,0115772837463189
-0,0102870740222232
-0,00929472097328377
-0,00864847151917805
-0,00838126114637782
-0,00850858078934399
-0,00902726441375574
-0,00991527599098896
-0,0111325139480002
-0,0126225903549745
-0,0143154848890121
-0,016130923411682
-0,0179822906880495
-0,0197808584865632
-0,0214400953979149
-0,0228798237097177
-0,024030001268196
-0,0248339314011162
-0,025250739896205
-0,0252570024482325
-0,0248474561435169
-0,0240347814417811
-0,0228484936190083
-0,0213330316681123
-0,0195451753911857
-0,0175509553798859
-0,0154222438561221
-0,01323322565847
-0,0110569474851785
-0,00896213011912018
-0,00701040382388987
-0,00525409323503701
-0,0037346373179578
-0,00248168525947742
-0,00151286370996108
-0,00083416784474072
-0,000440891342278683
-0,000318981170618467
-0,000446684025060868
-0,000796343495114367
-0,00133621078123804
-0,00203214631069989
-0,00284911326622501
-0,00375239446601389
-0,00470849825211961
-0,00568575379971554
-0,00665462829725982
-0,00758782478537599
-0,00846023768359476
-0,0092488515649611
-0,00993266691204184
-0,0104927247691451
-0,0109122817634049
-0,011177160137634
-0,0112762671206108
-0,0112022474433321
-0,0109522054355585
-0,0105284119942675
-0,00993889931027582
-0,00919784424521184
-0,00832565031807185
-0,00734865794755432
-0,00629844137037465
-0,00521068603332607
-0,00412367902665374
-0,00307648362527558
-0,00210690350679882
-0,00124936923147191
-0,000532896242043872
2,07320043868833E-05
0,000398411004239993
0,000596669213341836
0,000622039086670892
0,000490796959961806
0,000228070713839482
-0,000133637366607074
-0,000556419472254809
-0,00099929095968061
-0,00142071824641635
-0,00178116936067773
-0,00204550880926417
-0,0021850709878154
-0,002179272213312
-0,0020166583739815
-0,00169532999847432
-0,0012227353819152
-0,000614871101135851
0,000105026312487767
0,000908177313473477
0,00176219912418928
0,00263312993633473
0,00348738014800614
0,004293467553632
0,00502341941488851
0,00565375946329973
0,00616603881090219
0,00654691269841004
0,00678780611720271
0,00688424699812821
0,00683497279753254
0,00664093271169146
0,0063043121878296
0,00582769874002225
0,00521348927699659
0,00446361111069463
0,00357959425248805
0,00256299472502512
0,00141613087811986
0,000143060477002808
-0,00124930137613742
-0,002750042209563
-0,00434321704417291
-0,00600704226620496
-0,00771342882710244
-0,00942794157426716
-0,0111102402174734
-0,0127150209047098
-0,0141934385258904
-0,0154949517042493
-0,0165694979041451
-0,0173698777345172
-0,0178542074252071
-0,0179882879826546
-0,0177477393669985
-0,0171197580938364
-0,0161043761754209
-0,014715126896667
-0,0129790566852763
-0,0109360601014998
-0,00863755433879182
-0,00614454821839478
-0,00352519620802644
-0,000851958471440158
0,00180148828672845
0,00436342866518812
0,00676720763292932
0,00895408555859307
0,0108756952106969
0,0124959665119134
0,0137924121940025
0,0147567011424542
0,0153944845281324
0,0157244809437815
0,0157768686032533
0,0155910730462107
0,0152130754643537
0,0146923975446014
0,0140789415857061
0,0134198778482032
0,012756773310167
0,0121231464491001
0,0115426111966217
0,0110277404208063
0,0105797365503169
0,0101889464043761
0,00983620179635464
0,00949491047002629
0,00913376722690582
0,00871990670354364
0,00822228096974189
0,00761502034798699
0,00688052722285101
0,00601206172426911
0,00501560541244544
0,00391083344432112
0,00273108478599324
0,001522290139387
0,000340893573221889
-0,000749119186482129
-0,00167990121097917
-0,0023838885110739
-0,00279811881656587
-0,00286841262860056
-0,00255310430741418
-0,00182603549001645
-0,000678571097966112
0,000879533356931239
0,00282050028885108
0,0051001278466609
0,00766051465056113
0,010433718803396
0,013346081350485
0,0163228870356734
0,0192930030239919
0,0221931326129533
0,0249713469129137
0,027589611683115
0,0300251051826671
0,0322702200862591
0,034331250560637
0,0362258757114579
0,0379796536103648
0,0396218271953667
0,0411808068306074
0,0426797283618054
0,044132486623467
0,0455406117494326
0,0468912913695992
0,0481567506055056
0,0492950908401909
0,050252566480671
0,0509671563526685
0,0513731732544009
0,0514065611576437
0,0510104628041685
0,0501406070039095
0,0487700681314714
0,0468929904457129
0,0445269441101479
0,041713682522125
0,038518193618154
0,0350260713217485
0,0313393663577159
0,0275711973360378
0,0238395032306741
0,0202603887684325
0,0169415488586105
0,0139762540153342
0,0114383359547801
0,00937853457685191
0,0078224606913488
0,00677030186036186
0,00619826200127177
0,00606159016108297
0,00629893121586957
0,00683763120043262
0,00759956065497933
0,00850698633932804
0,00948802740216154
0,0104812758619686
0,011439239139332
0,0123303676130606
0,0131395537517299
0,0138671207918119
0,0145264470906588
0,0151404864282009
0,0157375351271125
0,0163466564511677
0,0169931964852993
0,0176948118412796
0,0184583794716304
0,019278077083289
0,020134816229023
0,0209970882820936
0,0218231566036564
0,0225644070876034
0,0231695642217124
0,0235893997261497
0,0237815125275027
0,0237147464028826
0,0233728362045194
0,0227569331754763
0,0218867496194479
0,020800175721604
0,0195513473808695
0,0182072731779748
0,0168432504331274
0,0155374047330197
0,0143647657412872
0,0133913380948582
0,0126686358943958
0,0122291218032589
0,0120829291317622
0,0122161523657234
0,012590875638859
0,0131469786888576
0,0138056259836126
0,0144742173209991
0,0150524670840149
0,0154391929528365
0,0155393397182426
0,0152707439331868
0,0145701617665047
0,013398134039828
0,0117423448625278
0,00961923706100247
0,00707377051300871
0,00417733925971236
0,00102399024178761
-0,00227479853889959
-0,00559642782279521
-0,00881415401981457
-0,011804275056124
-0,0144530623348471
-0,0166630035575938
-0,0183579779289149
-0,0194870662708535
-0,0200267972108004
-0,0199817392657759
-0,0193834592685261
-0,0182879723376696
-0,01677190040582
-0,0149276294160927
-0,0128578055055121
-0,0106695355402121
-0,0084686568773768
-0,00635441668120406
-0,00441485562404606
-0,00272312873033341
-0,00133492275503515
-0,000287050530007884
0,000402776140084896
0,000735066920566383
0,00072670219672475
0,0004082968144491
-0,000179001435954338
-0,000987040442571821
-0,00196427994666554
-0,00305926949783688
-0,00422378922545214
-0,00541549142850569
-0,00659992484668609
-0,00775187083970743
-0,00885596825105521
-0,00990664848627579
-0,0109074417655704
-0,011869747707628
-0,0128111870820207
-0,0137536661387108
-0,0147212904138045
-0,015738261902945
-0,0168268830515045
-0,0180057745194123
-0,0192883927632875
-0,0206819098396585
-0,0221864931595409
-0,0237949987666101
-0,0254930694139002
-0,0272596093418437
-0,0290675919573759
-0,030885145006268
-0,0326768504072032
-0,0344051924781234
-0,036032088388216
-0,0375204376732773
-0,0388356328103384
-0,0399469793720493
-0,0408289814046567
-0,0414624547401964
-0,0418354374659195
-0,0419438724124977
-0,0417920412048042
-0,0413927332498469
-0,0407671363455068
-0,0399444388096448
-0,0389611367148263
-0,0378600445027743
-0,036689013435258
-0,0354993703565106
-0,0343440992239526
-0,0332757996864905
-0,0323444702455555
-0,0315951775322712
-0,0310656870454654
-0,0307841431972084
-0,0307668964993414
-0,0310165819841467
-0,0315205544166099
-0,0322497816864658
-0,0331582874697755
-0,0341832177548384
-0,0352455835251791
-0,0362517046434753
-0,0370953490871005
-0,0376605287899416
-0,0378248803359451
-0,0374635276190273
-0,0364532962509182
-0,0346771276933943
-0,032028526167775
-0,0284158642847283
-0,0237663744026822
-0,0180296618278813
-0,0111805924177889
-0,00322142984826093
0,00581687469368854
0,0158743069312317
0,0268623623089661
0,0386655691831241
0,0511439333143075
0,0641362457347681
0,0774641699783722
0,0909370016158007
0,104356972961106
0,117524958490282
0,13024642163916
0,142337431023767
0,153630563743119
0,163980505584158
0,173269153300333
0,181410023664041
0,188351778965267
0,194080690428415
0,198621881009425
0,202039218287442
0,204433767316036
0,205940762257387
0,206725113502557
0,206975531934249
0,206897421262626
0,206704759353614
0,206611255930104
0,20682113234721
0,207519914669758
0,208865659752296
0,21098104188337
0,213946712384593
0,217796305323242
0,222513399748432
0,228030664840112
0,234231312875133
0,240952871243951
0,247993165213156
0,255118284776711
0,262072198991805
0,268587586577603
0,274397378375745
0,279246460372137
0,282902968615396
0,285168620920285
0,285887574183542
0,28495336802594
0,282313611163286
0,277972180870497
0,271988831568396
0,264476238844936
0,255594632913892
0,245544293802389
0,234556283380403
0,222881871726724
0,210781173621546
0,198511542917282
0,186316277417463
0,174414165256533
0,162990357483281
0,152188983447094
0,142107839356671
0,132795380281334
0,124250136503346
0,116422561317708
0,109219203896673
0,102508992399237
0,0961313135489609
0,0899054895844957
0,0836411855176879
0,0771492322244272
0,0702523266227492
0,0627950708508522
0,0546528388478952
0,0457390108711578
0,0360101929021208
0,0254691359392792
0,0141651858994475
0,00219222303284324
-0,0103158159119099
-0,0231916062200829
-0,0362429432186967
-0,0492626301999592
-0,0620392018858424
-0,0743678839421733
-0,0860611682924339
-0,0969584002360234
-0,106933826978314
-0,115902645954261
-0,123824710586067
-0,130705693813415
-0,13659566695127
-0,141585212833143
-0,145799346838595
-0,149389656487208
-0,152525179999253
-0,155382618537639
-0,158136510178833
-0,160949983388853
-0,163966654495614
-0,167304141222618
-0,171049539645292
-0,175257064345191
-0,179947892270373
-0,185112091992035
-0,190712373793998
-0,196689273435617
-0,202967292688923
-0,209461469404882
-0,216083842243114
-0,222749310172086
-0,229380460820939
-0,235911047998084
-0,242287927860369
-0,248471404209237
-0,254434074236835
-0,260158394936494
-0,265633296671237
-0,2708502454363
-0,275799193309909
-0,280464854825084
-0,284823706321968
-0,288842029895516
-0,292475220418028
-0,295668452689992
-0,298358676946329
-0,30047778612272
-0,301956688438732
-0,302729933524722
-0,302740486845191
-0,301944230044316
-0,300313785350948
-0,297841318305413
-0,294540059720316
-0,29044439720354
-0,285608509078508
-0,280103638360807
-0,274014220680919
-0,267433177551606
-0,26045675675461
-0,253179338810377
-0,245688629382211
-0,238061622100686
-0,230361647850091
-0,222636731095294
-0,214919359693483
-0,20722765178028
-0,199567782400338
-0,191937424032365
-0,184329868368573
-0,176738439099599
-0,169160781924088
-0,161602630473161
-0,154080694170725
-0,146624392054044
-0,139276258475251
-0,132090963549021
-0,125133013113206
-0,118473309308515
-0,112184853667487
-0,106337951178546
-0,100995319608879
-0,0962075195403106
-0,0920090961599208
-0,0884157660062769
-0,0854228955829831
-0,0830054114401851
-0,0811191621977553
-0,0797036322413285
-0,078685794767474
-0,0779847980264014
-0,0775171109642375
-0,0772017186628146
-0,0769649569519168
-0,0767446092398777
-0,0764929539237701
-0,0761785419200374
-0,0757865929371796
-0,0753180166030852
-0,0747871803045789
-0,0742186496406459
-0,0736432108441191
-0,0730935403497181
-0,0725999102833223
-0,0721863082650137
-0,0718673067854907
-0,0716459456275927
-0,071512796936348
-0,0714462750693818
-0,071414141894869
-0,0713760526293701
-0,0712868969090142
-0,0711006224134093
-0,0707741897427856
-0,0702713004920802
-0,0695655657822892
-0,0686428372344295
-0,0675025011930055
-0,066157632511159
-0,0646340075073131
-0,0629680773352041
-0,0612040937258838
-0,0593906507592421
-0,0575769527148276
-0,0558091352889404
-0,0541269544397519
-0,0525611155553173
-0,0511314499280017
-0,0498460622391302
-0,0487014800898602
-0,0476837434899778
-0,0467702875287802
-0,0459324031120622
-0,0451380149420968
-0,0443544968011128
-0,0435512530230984
-0,0427018303704503
-0,0417853823680109
-0,0407873822829889
-0,0396995636216374
-0,0385191497220087
-0,0372475083018551
-0,0358884251450872
-0,0344462276336295
-0,0329239999636194
-0,0313221166511584
-0,0296372810793298
-0,0278621956458867
-0,0259859159170536
-0,0239948609182859
-0,021874373801447
-0,0196106599086525
-0,0171928799573911
-0,0146151501443417
-0,0118782014936234
-0,00899047814492124
-0,00596850612672958
-0,00283643557473514
0,000375256632250702
0,00363182860130996
0,00689694073410736
0,010135699529087
0,0133177991446239
0,0164204584578863
0,0194308568900348
0,0223478070150812
0,0251824632250272
0,027957948154636
0,0307078747498579
0,0334738429315767
0,0363020863463601
0,0392395276044132
0,0423295617971217
0,0456079219872649
0,0490989833427962
0,0528128340198628
0,0567433830598125
0,0608676933809168
0,0651466285528949
0,0695267940933572
0,0739436468995939
0,0783255493815095
0,0825984661622901
0,0866909474562204
0,0905390187410128
0,0940906028585705
0,097309137251835
0,10017611218514
0,102692339858956
0,104877862057991
0,106770507191946
0,108423207934661
0,109900280310117
0,111272937360623
0,112614360485922
0,113994676201639
0,115476184616153
0,117109159642621
0,118928492967782
0,120951388701297
0,12317623901791
0,125582729053656
0,128133137854702
0,13077472682453
0,133443042501817
0,136065910121456
0,138567860474992
0,140874715994779
0,142918062468143
0,144639349009576
0,145993388786806
0,146951073849085
0,147501166303399
0,147651081987996
0,147426638783154
0,146870797032796
0,146041471801129
0,145008543709269
0,143850235073486
0,142649049467547
0,141487494431634
0,1404438179128
0,139587988539449
0,138978137784606
0,138657658656325
0,138653121507592
0,138973124142891
0,139608142511129
0,140531392334892
0,141700654008903
0,14306095630101
0,144547962338316
0,146091857496843
0,147621506308356
0,149068626910373
0,150371728667452
0,151479572104126
0,15235393980796
0,152971550875423
0,153325007063406
0,153422722376008
0,153287854967544
0,152956326193689
0,152474071609182
0,151893718285114
0,151270918346773
0,150660587523581
0,150113298440892
0,149672061478826
0,149369692778973
0,149226922186791
0,149251337411147
0,149437199020038
0,149766098953317
0,150208377812699
0,150725167583939
0,151270890093526
0,151796019724784
0,152249912714627
0,152583514397858
0,152751778444955
0,152715665763232
0,152443631807942
0,151912555648893
0,151108108259113
0,150024597449893
0,148664359625584
0,14703679192384
0,145157131248742
0,143045089195997
0,140723444937019
0,138216683657075
0,135549748609025
0,132746953017435
0,129831076684364
0,12682265359432
0,123739442880294
0,120596067198131
0,117403800008119
0,114170485780061
0,110900583312604
0,107595330272751
0,104253034566964
0,100869503175107
0,0974386198921041
0,0939530789257255
0,0904052711793164
0,0867883048863131
0,0830971234630684
0,0793296631827854
0,0754879741658658
0,0715792131030591
0,0676164077438601
0,0636188937336864
0,0596123352470315
0,0556282624483633
0,0517030902893245
0,0478766225922965
0,0441900897105826
0,0406838134930119
0,0373946354788275
0,0343532788646181
0,031581837837778
0,0290915962215537
0,0268813690415877
0,0249365351156203
0,0232288871374557
0,0217173706135318
0,0203497184480889
0,0190649190415037
0,0177963882114412
0,0164756549200578
0,0150363231521587
0,0134180418551579
0,0115702047885899
0,00945511390105064
0,00705037306521343
0,00435033138716205
0,00136646291676411
-0,00187335291759516
-0,00532660467853112
-0,00893885243117456
-0,0126471689055296
-0,0163840719715938
-0,0200816675821656
-0,0236757098969508
-0,0271092957572431
-0,0303359429579707
-0,0333218529556416
-0,0360472243146401
-0,0385065577556368
-0,0407079709180642
-0,0426716145894476
-0,044427346356682
-0,0460118675074712
-0,0474655610049962
-0,0488292805330861
-0,0501413327206759
-0,0514348681575853
-0,0527358546090624
-0,054061752051775
-0,0554209486314496
-0,0568129546011852
-0,0582292927838657
-0,0596549736325783
-0,0610704041173608
-0,0624535549027519
-0,0637822007095662
-0,0650360542219696
-0,0661986329946114
-0,0672587291421815
-0,0682113899926278
-0,0690583607860549
-0,0698079842269727
-0,0704745927963753
-0,0710774652217716
-0,0716394461140449
-0,0721853460211068
-0,0727402474217337
-0,0733278406837884
-0,0739689036946779
-0,0746800212394083
-0,075472617189956
-0,0763523462814438
-0,0773188648525582
-0,0783659733928486
-0,0794820998191236
-0,080651072427448
-0,0818531163975074
-0,0830659980578753
-0,084266236981428
-0,0854303071064876
-0,0865357539597514
-0,0875621649269526
-0,0884919425055771
-0,0893108456024957
-0,0900082802518151
-0,0905773376564796
-0,091014593334162
-0,0913196955756618
-0,0914947837167392
-0,0915437863143886
-0,0914716557823141
-0,0912835990679051
-0,0909843634164929
-0,0905776321747997
-0,0900655781163448
-0,0894486112820655
-0,0887253453259974
-0,0878927915139315
-0,0869467736382288
-0,0858825410864864
-0,084695542095032
-0,0833823058066467
-0,0819413710468701
-0,0803741925737479
-0,0786859525784999
-0,0768862068784682
-0,0749893017156313
-0,0730145082516882
-0,0709858373090835
-0,0689315159230999
-0,0668831288334884
-0,0648744509049186
-0,0629400192003591
-0,0611135145026258
-0,0594260399733947
-0,0579043979056542
-0,0565694729511836
-0,0554348308586676
-0,0545056351315946
-0,053777970034954
-0,0532386375258042
-0,0528654689202903
-0,0526281609205929
-0,0524896119101305
-0,0524077003941914
-0,0523374155217393
-0,0522332221566711
-0,0520515222077572
-0,0517530617300031
-0,0513051310087035
-0,050683413089355
-0,0498733549174118
-0,0488709634925974
-0,047682965543305
-0,0463263108143489
-0,0448270432547069
-0,0432186079736447
-0,0415397015220365
-0,0398318057814727
-0,0381365688517928
-0,0364932078979298
-0,0349361078568833
-0,0334927761304532
-0,0321822878167177
-0,0310143205446364
-0,0299888352683028
-0,0290964127663336
-0,0283192087063133
-0,0276324466559221
-0,0270063317370781
-0,0264082405381016
-0,0258050274276335
-0,02516528455865
-0,0244614025568728
-0,0236713000286204
-0,0227797205384037
-0,0217790327521517
-0,0206695097126534
-0,0194591031783719
-0,0181627652444708
-0,0168013991343559
-0,0154005418545286
-0,0139888920018889
-0,0125967960632787
-0,0112547966981815
-0,0099923283508834
-0,00883662140698626
-0,0078118488187956
-0,00693852168898811
-0,00623311562480383
-0,00570789025097166
-0,00537085193201823
-0,00522580548878003
-0,00527244454609254
-0,00550644124370314
-0,00591951265142172
-0,00649946100187999
-0,00723020506277565
-0,00809183778477481
-0,00906075823050308
-0,0101099316614142
-0,0112093292797585
-0,0123265881654519
-0,0134279131101889
-0,0144792169718112
-0,0154474673589416
-0,0163021779455691
-0,0170169558868627
-0,0175709959236691
-0,0179503996931276
-0,0181491976125088
-0,0181699615871401
-0,0180239196330891
-0,0177305170171723
-0,0173164102385082
-0,0168139266908112
-0,0162590700566937
-0,0156891949926821
-0,01514051018175
-0,014645592626638
-0,014231105290093
-0,0139159032857825
-0,0137096906199629
-0,0136123513191078
-0,0136140284270376
-0,0136959657983939
-0,0138320657071733
-0,0139910553645913
-0,0141391027656296
-0,0142426816523507
-0,0142714605995795
-0,0142009847638563
-0,0140149316008032
-0,0137067530437941
-0,0132805638294058
-0,0127511949722642
-0,0121433978912183
-0,011490252724231
-0,0108308981936534
-0,0102077545708864
-0,00966345129384566
-0,00923769332014171
-0,00896430359712961
-0,00886866304769439
-0,00896573582914373
-0,00925881945743236
-0,00973910103994062
-0,010386037472827
-0,0111685144739705
-0,0120466820263914
-0,0129743168007632
-0,0139015289817875
-0,0147776138443921
-0,0155538481283955
-0,0161860469302596
-0,0166367262714745
-0,0168767564056745
-0,0168864371832491
-0,0166559749909402
-0,0161853865431285
-0,0154838942971542
-0,0145689084608938
-0,0134647095499696
-0,0122009525215982
-0,0108111091693776
-0,00933095132051993
-0,00779715587764166
-0,00624608692327396
-0,00471278315080913
-0,00323015386750525
-0,0018283662945581
-0,000534392708584541
0,000628320944152754
0,00164010298504448
0,00248525184935327
0,00315219985128312
0,00363365104260983
0,00392668537700006
0,00403280962737783
0,00395792782840907
0,00371220176518159
0,0033097757124633
0,00276834896189642
0,00210859355245527
0,00135343127798256
0,00052720130542871
-0,000345234794454727
-0,00123939233240499
-0,00213200320023528
-0,00300173343898334
-0,00382972480467206
-0,00459992190025476
-0,00529916720704949
-0,0059170702875621
-0,00644568189831907
-0,00687902587211164
-0,0072125586929337
-0,00744263639735286
-0,00756606925841439
-0,00757983605318861
-0,00748101205001169
-0,00726693971418311
-0,00693564098397024
-0,00648643798603185
-0,00592071878201851
-0,00524275971884869
-0,00446049934582078
-0,0035861530508382
-0,00263656390013147
-0,00163320369946985
-0,000601767802227547
0,000428654843730255
0,00142681202472044
0,00236085101324744
0,00320010609571996
0,00391697177224103
0,00448870303565166
0,00489897927876529
0,00513907944109717
0,00520854269457999
0,00511522939133371
0,00487474778726146
0,00450926864573331
0,00404580690871481
0,00351410160329584
0,00294426676118592
0,00236441293494201
0,00179844776743756
0,00126425356805069
0,000772410375855986
0,00032558682705247
-8,13377265160178E-05
-0,000460422654520781
-0,000829157321221508
-0,00120842671797434
-0,00162013495131009
-0,00208470467778955
-0,00261868521221799
-0,00323269498479763
-0,00392989563754917
-0,00470514774504206
-0,00554493620196489
-0,00642808248086633
-0,00732718788454481
-0,00821068354375701
-0,00904530577458201
-0,0097987750149672
-0,010442436823154
-0,0109536262793803
-0,0113175423597739
-0,0115284640651577
-0,011590200958614
-0,0115157414907806
-0,0113261362780571
-0,0110487233224896
-0,0107148613593921
-0,0103573805177274
-0,010007982272327
-0,00969482124996608
-0,00944047997085717
-0,00926050634812188
-0,0091626269372157
-0,00914668217770162
-0,00920525981271283
-0,00932493614706797
-0,00948797826562494
-0,00967431920172624
-0,00986359616758497
-0,0100370412912057
-0,0101790346828135
-0,0102781688688772
-0,0103277276348696
-0,0103255456354859
-0,0102732814104856
-0,010175199069082
-0,0100366066426168
-0,00986213670541118
-0,00965407355837921
-0,00941092913655659
-0,00912644694341331
-0,00878917182168531
-0,00838266717350331
-0,00788639566415095
-0,00727721077464763
-0,00653134141656044
-0,00562669652205107
-0,00454527655876422
-0,00327545836333104
-0,00181392088996437
-0,000167002754685522
0,00164867385377782
0,00360641781774708
0,00567055504654829
0,00779834098127275
0,00994257887775129
0,0120547554649402
0,0140884525175883
0,0160027594310016
0,0177654014191516
0,0193553118900763
0,020764415208319
0,0219984446641599
0,0230766954353165
0,024030697554052
0,0249018823199912
0,0257383997965742
0,0265913178193398
0,0275104880348801
0,0285403970026053
0,0297163273134458
0,0310611341381158
0,0325828979390243
0,0342736477541679
0,036109266817553
0,0380506000433034
0,0400456886724248
0,0420329689265089
0,043945196160348
0,0457137999811067
0,0472733436882251
0,0485657557657014
0,0495440223371462
0,0501750755156759
0,0504416793892133
0,0503431971774777
0,0498952128438624
0,0491280705121047
0,0480844778408043
0,0468163882066698
0,0453814256206924
0,0438391420174313
0,0422473973239677
0,0406591291157627
0,0391197334823211
0,0376652165301122
0,0363212027782749
0,0351028093982338
0,0340153208473319
0,0330555335567427
0,0322135904683202
0,0314750943904626
0,030823279433655
0,0302410312955339
0,0297125779311968
0,0292247184884695
0,0287675152195784
0,0283344344651815
0,0279219825442903
0,0275289345861211
0,0271552940398443
0,0268011441729305
0,0264655583743892
0,0261457234108566
0,0258364006571707
0,0255298080278246
0,0252159544673934
0,0248834047277051
0,0245204004077403
0,0241162191241228
0,0236626217157663
0,0231552208216079
0,0225946047072108
0,0219870679166977
0,021344833549458
0,020685697625655
0,020032079815238
0,0194095217395432
0,0188447287944328
0,0183632988948663
0,0179873172819371
0,0177330172202646
0,0176087100590189
0,0176131742536583
0,0177346626090175
0,0179506426672963
0,0182283304814675
0,0185260174453467
0,0187951283359588
0,0189828911927394
0,0190354506687354
0,0189012198462232
0,0185342439738181
0,0178973447096134
0,0169648254515029
0,0157245461693404
0,0141792175881697
0,0123468164422039
0,0102600819851028
0,00796511476129306
0,0055191575758282
0,00298769161398691
0,000441024293639753
-0,00204942303943838
-0,00441490187830533
-0,00659296925216806
-0,00853074959742229
-0,0101876343096484
-0,0115372643058329
-0,0125686867180185
-0,0132866285045066
-0,0137108839919481
-0,0138748667320939
-0,0138234253602715
-0,013610065461823
-0,013293752409894
-0,0129354919379608
-0,0125948947763042
-0,0123269286950454
-0,012179046134594
-0,012188849410267
-0,0123824199592799
-0,0127733955238283
-0,0133628321757438
-0,0141398395218038
-0,0150829302597985
-0,0161619822535847
-0,01734067505919
-0,0185792354879399
-0,0198373099175991
-0,0210767756727545
-0,0222643101044801
-0,0233735536249272
-0,0243867307351994
-0,0252956292924158
-0,0261018806400275
-0,0268165291008118
-0,0274589258625731
-0,0280550265129837
-0,0286352106305374
-0,0292317733948914
-0,0298762611046581
-0,0305968333238441
-0,0314158333489095
-0,0323477357562229
-0,0333976156776137
-0,0345602506132301
-0,0358199240903356
-0,0371509539642111
-0,0385189195896191
-0,039882514685815
-0,0411959096296
-0,0424114711150754
-0,0434826611730113
-0,0443669233846055
-0,0450283629738063
-0,045440039654913
-0,0455857170740186
-0,0454609489320023
-0,0450734270795206
-0,0444425679791884
-0,0435983673757443
-0,042579604933896
-0,0414315271404631
-0,0402031743325785
-0,0389445432768866
-0,037703788107927
-0,0365246584422718
-0,0354443541137576
-0,0344919424418399
-0,0336874385832901
-0,0330415957379995
-0,0325563939259894
-0,0322261583679049
-0,0320391859216753
-0,03197971499171
-0,0320300446207285
-0,0321725948585188
-0,0323917044597125
-0,0326749835317046
-0,0330140764975812
-0,0334047417597138
-0,0338462147314053
-0,0343398854561928
-0,0348873854684521
-0,0354882354270246
-0,0361372503964223
-0,0368219294046943
-0,0375200672765863
-0,038197818472649
-0,0388084151948664
-0,0392916974161668
-0,0395745543253882
-0,0395723097235797
-0,0391910136569856
-0,038330534869979
-0,0368882890636409
-0,0347633912952366
-0,0318609908426543
-0,0280965356523391
-0,0233997216119876
-0,0177179081411239
-0,0110188231915783
-0,00329243364459703
0,00544808369742128
0,0151662751483177
0,0258031959566743
0,0372789507206187
0,049494855809983
0,0623360715222037
0,0756745473774894
0,0893721340149152
0,103283737166337
0,117260419537274
0,131152390745899
0,144811859100676
0,158095747504316
0,170868295462896
0,183003577471939
0,194387963830612
0,204922533615664
0,214525423135308
0,223134059999395
0,230707197365981
0,23722662982866
0,242698446782632
0,247153665329361
0,250648086316662
0,253261235919749
0,255094291594421
0,256266943747691
0,256913209882169
0,257176291541955
0,257202640346529
0,257135471341135
0,257108023438668
0,257236912058132
0,257615943453854
0,258310760526607
0,25935466477474
0,260745909164206
0,262446684654953
0,264383933302873
0,266452018963691
0,268517179372809
0,270423577798487
0,272000675548782
0,27307156461205
0,273461837877282
0,273008536487945
0,271568702152875
0,269027077148232
0,265302535217826
0,260352890001342
0,254177810251754
0,246819668219296
0,238362253937065
0,228927398177843
0,218669655050303
0,207769296295304
0,196423958496455
0,184839357439515
0,173219537199285
0,161757152490406
0,150624289521557
0,139964312110047
0,129885176189778
0,120454588256628
0,111697293968626
0,103594675526322
0,0960867151972064
0,0890762531093367
0,0824353368423017
0,0760133356940737
0,0696463813774152
0,0631676067881894
0,0564175921734344
0,0492543991239626
0,0415625811748729
0,0332606070613878
0,024306217949416
0,0146993595744293
0,00448247783462307
-0,00626186680926775
-0,0174159355520633
-0,02883399588417
-0,0403512968796387
-0,0517942496767611
-0,0629911382623993
-0,0737826422948771
-0,0840314610398038
-0,093630386376903
-0,102508280091418
-0,11063355924258
-0,118014972706078
-0,12469964873774
-0,130768592595715
-0,136329999341559
-0,141510905192094
-0,146447818474873
-0,15127703878399
-0,156125384777258
-0,161102006176135
-0,166291857629645
-0,171751269262797
-0,177505872902222
-0,183550948785336
-0,18985406129791
-0,196359670272419
-0,202995251739715
-0,20967835124548
-0,216323932765938
-0,222851381275172
-0,229190566740919
-0,235286476609996
-0,241102063335992
-0,246619120404093
-0,251837179684606
-0,256770598915822
-0,261444165412363
-0,265887667325316
-0,270129966624868
-0,274193142076204
-0,278087253905059
-0,281806217197926
-0,285325165181662
-0,288599546694243
-0,291566047194229
-0,29414526367752
-0,296245914927439
-0,297770242383805
-0,298620163933168
-0,298703690126325
-0,297941102961138
-0,296270430621839
-0,293651822884155
-0,290070533453546
-0,285538337094035
-0,280093339458799
-0,273798264239164
-0,266737414692677
-0,259012595689059
-0,250738341716341
-0,242036822416184
-0,233032790137776
-0,223848896683058
-0,214601644564368
-0,205398159305113
-0,196333882293404
-0,18749119732879
-0,178938926435123
-0,170732568392482
-0,1629151113269
-0,155518230743539
-0,148563686220983
-0,142064750976609
-0,136027544153884
-0,130452180227885
-0,125333697093893
-0,120662768149296
-0,116426238827423
-0,1126075508873
-0,109187126426739
-0,106142778091649
-0,103450194263517
-0,101083521542591
-0,0990160361784412
-0,0972208661856393
-0,0956717015528328
-0,0943434152091071
-0,0932125149249784
-0,0922573571567769
-0,0914580771920062
-0,0907962232894356
-0,0902541218793084
-0,0898140412915657
-0,0894572575542493
-0,0891631524096933
-0,0889084865848429
-0,088666987703303
-0,0884093710579739
-0,0881038738121327
-0,0877173320992476
-0,0872167707516867
-0,0865714130546242
-0,0857549597475031
-0,0847479391668985
-0,0835398998523963
-0,0821312075740838
-0,0805342230697253
-0,0787736749072932
-0,0768861015153319
-0,0749183129066216
-0,0729249094021402
-0,070964983864979
-0,0690982170705601
-0,0673806446327429
-0,0658604211713306
-0,0645739277084155
-0,0635425585943565
-0,0627704842219783
-0,0622436179059942
-0,0619299246965147
-0,0617811039486311
-0,0617355651120552
-0,0617225071823375
-0,0616668161774073
-0,0614944205243636
-0,0611376982128289
-0,0605405164249347
-0,0596625056947278
-0,0584822250720961
-0,0569989579794066
-0,0552329836651536
-0,0532242876625049
-0,0510297966129373
-0,0487193380916239
-0,0463706251898951
-0,0440636404608384
-0,041874838524971
-0,0398715977587066
-0,0381073286293772
-0,036617591701904
-0,0354174971531964
-0,0345005568128537
-0,0338390479071277
-0,0333858340109489
-0,0330774823979431
-0,0328384262317896
-0,0325858515941158
-0,0322349477997403
-0,0317041470600944
-0,0309199960300681
-0,0298213445413004
-0,0283626011649042
-0,0265158849930216
-0,0242719909880911
-0,0216401750184131
-0,0186468471454789
-0,0153333318136011
-0,011752906535996
-0,00796736360826587
-0,00404335118508151
-4,87415879846787E-05
0,00395075163976021
0,00789452680419128
0,0117294859769913
0,0154117886567089
0,0189079436699681
0,0221952643663103
0,0252617521566712
0,0281055024785346
0,0307337442378755
0,0331616287807464
0,0354108787423267
0,0375083928559634
0,0394848826763921
0,041373594168599
0,0432091441369268
0,0450264810373883
0,0468599637468548
0,0487425415569957
0,0507050143670742
0,0527753533994388
0,0549780687035087
0,057333618768683
0,0598578679398756
0,0625616072963097
0,0654501625705617
0,0685231173801333
0,0717741807337432
0,0751912243151868
0,0787565077321444
0,0824470996021878
0,0862354901318989
0,0900903781218683
0,0939776034136569
0,097861185960596
0,101704425877979
0,105471015631887
0,109126116106231
0,112637352435996
0,115975692580154
0,119116180766915
0,122038508123383
0,124727412943186
0,127172912161226
0,129370372936703
0,131320438310115
0,133028823532435
0,134506000044007
0,135766782652707
0,136829832906579
0,137717088725422
0,13845312788225
0,139064471529434
0,13957883417548
0,140024328525912
0,140428637335268
0,14081816948203
0,14121722327435
0,141647185662819
0,142125800728053
0,142666543623685
0,1432781363755
0,143964239071205
0,144723343828553
0,145548889686651
0,146429604731987
0,147350068198585
0,148291471045783
0,149232539859147
0,150150577055
0,151022561488287
0,151826248528262
0,152541208098396
0,153149743253396
0,153637640341088
0,153994714018013
0,154215125335178
0,154297467484622
0,154244630164837
0,154063468431098
0,153764314015414
0,153360375400985
0,152867076696144
0,152301384374381
0,151681165426899
0,151024611117531
0,150349748397132
0,149674047484094
0,149014120639999
0,148385495268218
0,147802435456009
0,147277781003218
0,146822772449402
0,146446834738191
0,14615730058993
0,145959066489089
0,145854188207019
0,145841437387216
0,145915854281153
0,146068342562687
0,14628535889583
0,146548751476408
0,146835797588432
0,147119480268185
0,147369029047805
0,147550730553122
0,147628993048982
0,147567626727883
0,147331280658279
0,146886959838508
0,146205533466259
0,145263139679451
0,14404239343515
0,142533313035274
0,140733896571703
0,138650301150026
0,136296603496435
0,133694148439332
0,130870519546799
0,127858191670879
0,124692946252152
0,121412145334471
0,118052968198707
0,114650714833793
0,111237273284707
0,107839834023739
0,104479915200655
0,101172739677952
0,0979269801226003
0,0947448641078038
0,0916226090780995
0,0885511387308679
0,0855170189837759
0,0825035438990335
0,079491899782678
0,0764623387403826
0,0733953004024706
0,070272431155168
0,0670774626752883
0,0637969245470329
0,0604206780123573
0,0569422685338606
0,0533591032294961
0,0496724651456891
0,0458873799109032
0,042012351998756
0,038058988279364
0,0340415264880638
0,0299762863746991
0,0258810621434588
0,0217744766288507
0,0176753204196772
0,0136019024882717
0,0095714421806561
0,005599534820282
0,00169972380928003
-0,00211678984733883
-0,00584127483368372
-0,00946741647415332
-0,0129910780666698
-0,0164098858379923
-0,0197226628030477
-0,0229287529229647
-0,0260272914399138
-0,029016488348666
-0,0318929980523993
-0,0346514480613187
-0,0372841923956557
-0,0397813410836087
-0,042131096442564
-0,0443204011041964
-0,0463358740158311
-0,0481649814392254
-0,0497973630310786
-0,0512262112173329
-0,0524495876935228
-0,0534715559373292
-0,0543030142039245
-0,0549621297871688
-0,0554743015119305
-0,0558716116889859
-0,056191768427718
-0,0564765809752473
-0,0567700510031647
-0,0571161978470459
-0,0575567623219199
-0,0581289492444105
-0,0588633714929889
-0,0597823477104621
-0,0608986822160141
-0,0622150210816437
-0,0637238354324928
-0,0654080353890699
-0,0672421697092803
-0,069194121215567
-0,0712271703492993
-0,0733022719070048
-0,0753803754731482
-0,0774246194756116
-0,0794022420960612
-0,0812860782415879
-0,0830555480745966
-0,0846970860076979
-0,0862040058133824
-0,0875758435598306
-0,0888172615849936
-0,0899366302241731
-0,0909444268658465
-0,0918516024023922
-0,092668062708756
-0,0934013978929435
-0,0940559663412013
-0,0946324064257226
-0,095127609272986
-0,095535144654652
-0,0958460923569879
-0,0960501965806493
-0,0961372337780707
-0,0960984668779702
-0,0959280522496027
-0,0956242702791197
-0,0951904653799664
-0,0946356051877336
-0,0939743994254066
-0,0932269538747974
-0,0924179712137148
-0,0915755453344093
-0,0907296265409847
-0,0899102595383929
-0,0891457127657942
-0,0884606254137938
-0,0878742971792126
-0,0873992358616114
-0,0870400603589504
-0,0867928330101785
-0,086644867470506
-0,0865750284648545
-0,0865545099587753
-0,0865480504728144
-0,0865155201344311
-0,0864137949144856
-0,0861988201819112
-0,0858277586199876
-0,0852611165860787
-0,0844647476817012
-0,0834116418096754
-0,0820834212921839
-0,0804714815479752
-0,0785777312291871
-0,0764149045414532
-0,0740064358391161
-0,0713859028460607
-0,0685960596041331
-0,065687493329521
-0,0627169507771139
-0,0597453896384325
-0,0568358191287498
-0,0540510014183034
-0,0514510920079987
-0,0490913024364673
-0,0470196725557092
-0,0452750415495367
-0,043885306273351
-0,0428660516741941
-0,0422196303145383
-0,0419347558297006
-0,0419866581852895
-0,0423378269178702
-0,0429393425974258
-0,0437327675177194
-0,0446525354793296
-0,0456287493467456
-0,0465902659382542
-0,0474679230530009
-0,0481977453019967
-0,0487239558955204
-0,049001622219094
-0,0489987748300133
-0,0486978625735696
-0,0480964401372599
-0,0472070269210127
-0,0460561251848196
-0,0446824379165526
-0,0431343791603866
-0,0414670178623857
-0,0397386369110039
-0,0380071186544013
-0,0363263841654803
-0,0347431141761353
-0,0332939643753251
-0,0320034572738563
-0,0308826889242861
-0,0299289343724698
-0,0291261746148013
-0,0284465044699374
-0,0278523198047277
-0,0272991285743789
-0,0267387872126852
-0,0261229353281457
-0,0254063896132908
-0,0245502632587067
-0,0235245995561716
-0,0223103460035999
-0,0209005451360074
-0,0193006766272047
-0,0175281473977071
-0,0156109877592754
-0,0135858673799153
-0,0114955909015384
-0,00938626608396799
-0,00730435514274971
-0,00529382151256893
-0,00339356990763463
-0,0016353488457874
-4,22443883291823E-05
0,0013721547676545
0,00260389349053818
0,00365811308187611
0,00454791476870111
0,00529273865218685
0,00591640326785211
0,00644496880351386
0,00690459169519293
0,00731953005160142
0,00771043943334469
0,00809306910487525
0,00847743275144279
0,00886748798261572
0,00926131896571684
0,00965177934444991
0,0100275208233351
0,0103743085312704
0,0106765088098417
0,0109186289859948
0,0110867917428427
0,0111700380346741
0,0111613706218269
0,0110584734485341
0,0108640681696371
0,0105858961423043
0,0102363401756736
0,00983172366740384
0,0093913441163055
0,0089363125230424
0,00848827939917774
0,0080681318920879
0,00769474515055312
0,00738386499533366
0,00714718887993724
0,00699169884226815
0,00691928444958943
0,00692667650121996
0,00700569427431569
0,00714379116686772
0,00732486649261479
0,00753029562240111
0,00774011740362719
0,00793430749650751
0,00809405960142758
0,00820299408513689
0,00824821567875866
0,00822114895093021
0,00811809214290461
0,00794044636297026
0,00769459736969161
0,00739145020838514
0,00704564139915858
0,00667447754219316
0,00629667129165606
0,00593096375287641
0,00559473475619659
0,00530270768812718
0,00506585263738832
0,00489058015879481
0,00477829829657941
0,00472537870777762
0,00472354557150886
0,00476066589049341
0,00482188460515611
0,00489101577037985
0,00495207489836062
0,00499082013697602
0,00499616334411009
0,00496131752059948
0,00488456471319901
0,00476955745988659
0,00462510510210504
0,00446444085472866
0,00430401264012211
0,00416188618241214
0,00405588845961826
0,00400164941950136
0,00401071666798584
0,00408891951861592
0,00423514454262379
0,00444065519941585
0,00468904539410452
0,00495686429297193
0,0052148919069449
0,00542998695583929
0,00556737564033914
0,005593207215621
0,00547717385053559
0,00519498116164022
0,0047304634772481
0,00407716398448557
0,00323924243514267
0,00223162840358612
0,00107940127821103
-0,000183556446618727
-0,00151652449983634
-0,00287436873693233
-0,00421022606891164
-0,00547823333798423
-0,00663608337954835
-0,0076472116063625
-0,00848245438097109
-0,00912107250011373
-0,00955109422948629
-0,00976899651454701
-0,00977880397696729
-0,0095907371165186
-0,00921957871884188
-0,00868294718730884
-0,0079996655428678
-0,00718839530091329
-0,00626666749227943
-0,00525039264246743
-0,00415387285504903
-0,00299027843533092
-0,00177249510654398
-0,00051420182506854
0,00076899158030656
0,00205852978548752
0,00333219505971507
0,00456383492615755
0,00572363632162599
0,00677899050525595
0,00769592828143425
0,00844103992260459
0,00898373521059904
0,00929865239437204
0,00936799565175015
0,00918357219995652
0,00874831394866539
0,00807710374702969
0,00719678000824067
0,00614526112446315
0,0049698065115071
0,00372450749127743
0,00246717142760011
0,00125582007198914
0,000145062476229934
-0,000817379667575748
-0,00159372262508316
-0,00215850511791884
-0,00250011520289154
-0,0026213351175545
-0,00253885757711221
-0,0022818089594552
-0,00188939379945301
-0,00140784429146509
-0,000886912281052871
-0,000376175132804889
7,85617288455036E-05
0,000438494495542647
0,000674445220738641
0,000768694998166232
0,00071590635854881
0,000523089217941207
0,000208640627653294
-0,000199439911284103
-0,000665996425511519
-0,00115161403774949
-0,00161573003327837
-0,00201971183335176
-0,00232966669319061
-0,00251877769717556
-0,00256900564144168
-0,0024720525529847
-0,00222954495119606
-0,00185245828326317
-0,00135986316861218
-0,000777124543008229
-0,000133722829829506
0,000539110732170263
0,00121074578708062
0,00185330232900399
0,0024434331762541
0,00296361161557582
0,00340284239672555
0,00375676536169318
0,00402717294566209
0,0042210113990698
0,00434897702348809
0,00442384987369137
0,00445872594572567
0,00446531368904253
0,00445245158113944
0,00442498152164632
0,00438307990584352
0,00432210725459242
0,00423299167672036
0,00410311493022268
0,00391762630183824
0,00366107244347704
0,00331920371419489
0,00288080170391989
0,00233936972365362
0,00169453835698889
0,000953060788946473
0,000129305667919619
-0,000754804051887906
-0,00167041291688599
-0,00258287669615937
-0,00345334730582827
-0,0042406832082596
-0,00490354446857888
-0,00540251862244878
-0,00570212361439972
-0,0057725472249728
-0,00559100738538636
-0,00514265224824594
-0,00442095968929095
-0,00342763927407921
-0,00217208162146043
-0,000670436649969728
0,00105556999845593
0,00297995656130164
0,00507381129122958
0,00730650497635554
0,00964669103924899
0,0120630255139776
0,0145245768121003
0,0170009353743166
0,0194620718047153
0,0218780247637325
0,0242185231439224
0,0264526581724884
0,0285487186022611
0,0304742859687855
0,0321966583612649
0,03368363297149
0,0349046336399143
0,0358321242501673
0,0364432069769441
0,0367212707244588
0,0366575335909894
0,0362523167441434
0,0355158971587083
0,034468813081186
0,0331415369970379
0,0315734829322466
0,0298113734608529
0,0279070513808153
0,0259148758469741
0,0238888872975644
0,0218799550273288
0,019933132294527
0,0180854346345894
0,0163642276950357
0,0147863634665587
0,0133581421232545
0,0120761061211114
0,0109286000853976
0,00989796108716648
0,00896314570585251
0,00810255849213721
0,0072968253520108
0,00653125739990947
0,00579777627596263
0,00509611889307215
0,00443420411434119
0,00382762028367251
0,00329827391452856
0,00287231871128732
0,00257755304203835
0,00244052643296914
0,00248362647245296
0,0027224234953652
0,00316353068586009
0,00380319323567574
0,00462675574139705
0,00560907783029803
0,00671588126496268
0,0079059254736577
0,0091338305780189
0,0103533048997382
0,011520493489215
0,0125971494261355
0,0135533420705781
0,0143694551848708
0,0150372895551869
0,0155601638852087
0,0159519972051675
0,016235447669022
0,0164392680787666
0,0165951099584937
0,0167340589551625
0,0168832101364243
0,0170625900050234
0,0172827029437612
0,017542925987268
0,0178309021664787
0,0181229958831793
0,0183857816106713
0,0185784479429206
0,0186559205054931
0,0185724463204805
0,0182853440867067
0,0177586124972583
0,0169661029167922
0,0158940017539433
0,0145424278254806
0,0129260252824075
0,0110735163151048
0,00902626245055094
0,00683596140593439
0,00456167161405418
0,00226640347011111
1,35416111323821E-05
-0,0021366352037182
-0,00413009011960817
-0,00592161330872734
-0,00747670434637328
-0,00877266473122411
-0,00979888175463632
-0,0105563506643409
-0,0110565395069422
-0,0113197455883886
-0,0113731209035944
-0,011248554592181
-0,0109805936306835
-0,0106045603056261
-0,010154989702077
-0,00966446658148595
-0,00916289336627332
-0,00867717426349292
-0,00823125927917553
-0,00784645967180034
-0,00754192580728443
-0,0073351707682235
-0,00724252836061768
-0,00727945114916728
-0,00746058045584271
-0,00779955279937273
-0,00830854248012333
-0,00899757427290657
-0,00987367016271751
-0,0109399169057426
-0,012194554991654
-0,0136301932450448
-0,0152332468118208
-0,0169836805186573
-0,0188551162496868
-0,0208153343635387
-0,0228271679173054
-0,0248497573190781
-0,0268401046035915
-0,0287548430389797
-0,0305521209291857
-0,0321934893404637
-0,0336456824076476
-0,0348821856158556
-0,0358845011060335
-0,0366430383240504
-0,0371575815608049
-0,0374373113167456
-0,0375003821713551
-0,0373730842674101
-0,0370886371970968
-0,0366856828902194
-0,0362065572922664
-0,0356954287885485
-0,0351963944341324
-0,0347516233140161
-0,0343996303141841
-0,0341737538448564
-0,0341008984409139
-0,0342005884723412
-0,0344843632637953
-0,0349555275405417
-0,0356092550043868
-0,0364330276506452
-0,0374073797029128
-0,0385069032347258
-0,0397014630105206
-0,0409575610827181
-0,0422397873818054
-0,0435122909998304
-0,0447402080601768
-0,0458909858368249
-0,0469355489200243
-0,0478492613630004
-0,0486126484966397
-0,0492118529666329
-0,0496388110071948
-0,0498911464876297
-0,0499717912964729
-0,0498883507222927
-0,0496522412195454
-0,0492776350516745
-0,0487802516149974
-0,0481760387585664
-0,0474797892566764
-0,0467037380155051
-0,0458561849520945
-0,0449401871868036
-0,0439523626379578
-0,0428818456705355
-0,0417094343737394
-0,0404069684130473
-0,0389369761253047
-0,0372526292690536
-0,0352980430795928
-0,033008957285898
-0,0303138297042398
-0,0271353670375809
-0,0233925068091081
-0,0190028493186072
-0,0138855188613096
-0,00796440932480784
-0,00117174136050951
0,00654817216651711
0,0152350869995771
0,024909078836885
0,0355670749133706
0,0471798738309256
0,0596898699372658
0,0730096942398891
0,0870219649661485
0,101580306306071
0,11651174358842
0,131620518377976
0,146693290337599
0,161505608034915
0,175829443257575
0,189441498706582
0,20213192357293
0,21371301186559
0,224027420331812
0,232955431250621
0,240420803590971
0,246394805378326
0,250898099740642
0,254000263820965
0,255816848071096
0,256504025925994
0,256251031473982
0,255270725545361
0,253788758447258
0,252031900791509
0,250216184199469
0,248535524919499
0,247151491946067
0,246184826451868
0,245709223798565
0,245747758621466
0,246272175802913
0,247205095944318
0,248425005010039
0,249773726421806
0,251065921845757
0,252100044719455
0,252670086532223
0,252577415498516
0,251642012887462
0,249712462805165
0,246674142406716
0,242455184129727
0,237029930201444
0,230419761420836
0,222691345547128
0,21395250430071
0,204346031924708
0,19404190429725
0,183228389978421
0,172102610373664
0,160861095272043
0,149690845003681
0,138761346235935
0,128217901709606
0,118176532791502
0,108720605765708
0,099899226169566
0,0917273471441774
0,0841874532294581
0,0772326140923235
0,0707906552789223
0,0647691654039588
0,0590610498391356
0,053550347370706
0,0481180451123287
0,0426476545805202
0,0370303447577689
0,0311694632199382
0,0249843117540219
0,0184130769562179
0,0114148485858707
0,00397068910455827
-0,00391625250613785
-0,012221560077094
-0,0209012502246071
-0,0298942698375171
-0,0391256770149858
-0,0485103612463582
-0,0579571310464366
-0,0673729745459305
-0,0766672832806427
-0,0857558241384794
-0,0945642512250982
-0,103030969586397
-0,111109196561706
-0,118768112951308
-0,125993052836914
-0,132784744176813
-0,139157677576697
-0,145137742704869
-0,150759325266594
-0,156062097271871
-0,161087755424665
-0,165876964069531
-0,17046673927366
-0,17488847019078
-0,17916671571009
-0,183318843180125
-0,187355497706951
-0,191281812103398
-0,195099196164369
-0,198807486340482
-0,202407198773207
-0,20590161409492
-0,209298433391
-0,212610780897092
-0,215857387730133
-0,219061867335868
-0,222251080821697
-0,225452681147452
-0,228692011010247
-0,231988602229973
-0,235352577543008
-0,238781283656777
-0,242256484109524
-0,245742411254124
-0,249184920511054
-0,252511911218567
-0,255635083355468
-0,258452995925702
-0,260855289525369
-0,262727841160442
-0,263958541623439
-0,264443331114553
-0,264092101741517
-0,262834078160685
-0,26062231953041
-0,257437044325704
-0,253287559455156
-0,248212669970594
-0,242279547797281
-0,23558113936901
-0,228232285163107
-0,220364802169043
-0,212121838110084
-0,203651840369674
-0,195102491755322
-0,186614950161253
-0,17831869243147
-0,170327208364848
-0,162734723981113
-0,155614059605366
-0,14901565374745
-0,142967713490976
-0,137477390572287
-0,132532832900519
-0,128105925949804
-0,124155518008193
-0,120630917224
-0,11747545529891
-0,114629930342379
-0,112035767221033
-0,109637764975947
-0,107386334926183
-0,105239167681518
-0,103162300639799
-0,101130588358423
-0,0991276056491667
-0,097145036937821
-0,0951816252153071
-0,0932417697507585
-0,0913338736888141
-0,0894685505896404
-0,0876568027475332
-0,0859082834021917
-0,0842297494276706
-0,0826238004161159
-0,0810879841875593
-0,0796143277989821
-0,0781893277338018
-0,0767944041401117
-0,0754067933089082
-0,0740008219771581
-0,0725494787090536
-0,0710261738732539
-0,0694065627949279
-0,0676702983173657
-0,0658025805265003
-0,0637953832215083
-0,0616482584653007
-0,0593686508676994
-0,0569716899749622
-0,0544794693681194
-0,0519198614812387
-0,0493249542064355
-0,0467292257570708
-0,0441675951610482
-0,0416734951133113
-0,0392771107403906
-0,0370039122333312
-0,0348735826211602
-0,032899406545443
-0,0310881450296613
-0,0294403786916888
-0,027951261642799
-0,0266115942416133
-0,0254090981534861
-0,024329764110459
-0,0233591425372424
-0,0224834597018009
-0,0216904658447791
-0,0209699543361445
-0,0203139288281098
-0,0197164346603596
-0,0191731072880367
-0,0186805203995593
-0,0182354365091291
-0,0178340710301446
-0,0174714762599912
-0,0171411348392678
-0,0168348249187875
-0,0165427844121712
-0,0162541632096062
-0,0159577143251033
-0,0156426419760323
-0,0152995003867558
-0,0149210246564808
-0,0145027761034985
-0,014043499440238
-0,0135451167947456
-0,0130123213949621
-0,0124517779286499
-0,0118709825986316
-0,0112768788013427
-0,010674359355514
-0,0100648092105792
-0,00944485052117924
-0,00880544335564825
-0,00813147019829857
-0,00740189263907944
-0,00659051758386796
-0,00566735264867835
-0,00460047159774605
-0,00335825657915961
-0,00191184001558593
-0,000237540064283647
0,00168092709033495
0,00385066547121639
0,00626842628626384
0,00892017504426805
0,0117814696683313
0,0148186514602954
0,0179907796067433
0,0212521731017807
0,0245553678416596
0,0278542565288154
0,0311071589257455
0,0342795719669666
0,0373463734087404
0,0402932970203895
0,0431175579532837
0,0458275784126178
0,0484418396886741
0,0509869601065386
0,0534951629229085
0,0560013478776636
0,0585400106219733
0,0611422630722079
0,063833194319713
0,0666297776281083
0,0695394776835054
0,0725596486323074
0,0756777435477923
0,0788722863575654
0,0821144942430843
0,0853703877085867
0,0886031912004746
0,0917758119943487
0,0948531898155927
0,0978043331635422
0,100603897650943
0,10323321249871
0,105680718292991
0,1079418364506
0,110018342918906
0,111917360511738
0,113650112183221
0,11523058922979
0,116674283301269
0,117997110413001
0,119214621589543
0,120341552355096
0,121391716842605
0,122378206963012
0,123313817789466
0,124211591294011
0,125085354886978
0,125950130493272
0,126822304193792
0,127719474187081
0,128659933060475
0,129661784982678
0,130741744725839
0,131913708428824
0,133187221092153
0,134565989089122
0,136046594817268
0,137617563714657
0,139258911588125
0,140942264356401
0,142631596119112
0,144284579161458
0,145854485938345
0,147292533267086
0,148550517556883
0,149583560803178
0,15035277300731
0,150827638975099
0,150987955916174
0,150825181233815
0,15034309438503
0,149557728708636
0,14849658406652
0,147197184209632
0,145705089484188
0,14407151196641
0,14235070358824
0,140597296711442
0,138863770761953
0,137198199079832
0,135642399418526
0,134230572768074
0,132988472227687
0,131933100499506
0,131072895059373
0,130408327437773
0,12993281973473
0,12963386891389
0,12949426784497
0,129493320705575
0,129607967483231
0,129813755474825
0,130085621996535
0,130398478994869
0,130727614097359
0,131048941556255
0,131339148896777
0,131575790087362
0,131737373791624
0,131803486598071
0,131754977616757
0,131574214503137
0,13124540402387
0,1307549549324
0,130091849054023
0,129247979502393
0,128218413617857
0,12700154262835
0,125599089517375
0,124015959968409
0,122259936855009
0,120341234675605
0,118271944681554
0,116065412535796
0,113735596848597
0,111296458149318
0,108761423645855
0,106142964001738
0,103452305435799
0,10069928523842
0,0978923430767704
0,0950386260829113
0,0921441743522563
0,0892141464240129
0,0862530424095
0,0832648858587006
0,0802533337897822
0,077221696548512
0,0741728638369298
0,0711091485540906
0,0680320741680688
0,0649421424075795
0,0618386246712004
0,0587194217602233
0,0555810319953169
0,0524186577843205
0,0492264662263918
0,0459980018681099
0,0427267311311903
0,039406680314581
0,0360331144445965
0,0326031944113931
0,0291165460785549
0,0255756781308855
0,0219861953013063
0,0183567696138007
0,0146988529956229
0,0110261381793634
0,0073537989425227
0,00369756310631736
7,26900320544814E-05
-0,00350706325457084
-0,00703039810955885
-0,0104892661986149
-0,0138794218841475
-0,0172006776101688
-0,020456828421281
-0,0236552389342401
-0,0268061144725644
-0,0299215051881229
-0,0330141154226019
-0,0360960082679886
-0,0391773056975524
-0,0422649868949851
-0,0453618812829041
-0,0484659388399562
-0,0515698397372349
-0,0546609799167156
-0,0577218410379026
-0,0607307245697362
-0,0636628029459127
-0,0664914177249169
-0,0691895372715561
-0,0717312758180048
-0,0740933724666722
-0,0762565327968466
-0,078206546673871
-0,0799351125713765
-0,0814403197864224
-0,082726763622733
-0,0838052931736895
-0,0846924149549005
-0,0854093967437982
-0,0859811332372059
-0,0864348476044276
-0,0867987100957308
-0,0871004564569686
-0,0873660852143977
-0,0876187045293827
-0,0878775871462601
-0,0881574769947349
-0,0884681744182978
-0,0888144099167624
-0,0891959997894322
-0,0896082620682306
-0,0900426583761436
-0,0904876173459949
-0,0909294882682824
-0,0913535697767857
-0,0917451574801042
-0,0920905562490685
-0,0923780069452105
-0,0925984833246141
-0,0927463221621589
-0,0928196579328332
-0,0928206422428044
-0,0927554373576415
-0,0926339823808707
-0,0924695397478394
-0,0922780385942045
-0,0920772401463241
-0,0918857584312895
-0,0917219771724619
-0,0916029104794275
-0,0915430605529336
-0,09155332972504
-0,0916400462883533
-0,091804163274676
-0,0920406861840155
-0,092338379271034
-0,0926797901796733
-0,0930416194508367
-0,0933954449891218
-0,0937087924982366
-0,0939465220272777
-0,0940724792443381
-0,0940513392240912
-0,0938505519209012
-0,0934422836677554
-0,092805239474567
-0,0919262479015224
-0,0908014947837708
-0,0894373045783248
-0,0878503885290975
-0,0860675065184377
-0,0841245231050568
-0,0820648759636538
-0,0799375143815524
-0,0777944039390056
-0,0756877281362382
-0,0736669457630053
-0,0717758817179658
-0,0700500367704606
-0,0685142971778576
-0,0671812076468415
-0,0660499414201046
-0,0651060607731666
-0,0643221123013997
-0,0636590472649408
-0,0630684016527611
-0,0624951175467868
-0,0618808408170179
-0,0611674938261276
-0,0603008986543778
-0,0592342185292278
-0,0579309935836659
-0,0563675715938838
-0,0545347734201298
-0,0524386838810659
-0,0501005180543732
-0,0475555761911297
-0,0448513628373427
-0,0420450026192919
-0,0392001321721782
-0,0363834812453565
-0,0336613735741486
-0,031096378368239
-0,028744326342471
-0,0266518715573527
-0,0248547347196951
-0,0233767087732248
-0,0222294480974033
-0,0214130033068762
-0,0209170092839899
-0,0207223890175432
-0,0208034035951653
-0,0211298616487367
-0,0216693007811358
-0,0223889686282138
-0,0232574605677875
-0,0242459116983791
-0,0253286887664017
-0,0264835787107476
-0,0276915197701106
-0,0289359641578055
-0,0302019943572009
-0,0314753351281333
-0,0327414087111928
-0,0339845710819851
-0,035187643475846
-0,0363318181579921
-0,0373969739173999
-0,0383623892811385
-0,0392077945556891
-0,0399146621155616
-0,0404676020447882
-0,0408557106183186
-0,0410737144308673
-0,0411227640545627
-0,0410107573547608
-0,0407521120043948
-0,0403669559445609
-0,039879759350832
-0,0393174870608021
-0,0387074013237099
-0,038074686263852
-0,0374400934392391
-0,0368178192137653
-0,0362138176857514
-0,035624727469798
-0,0350375482168583
-0,034430146440978
-0,0337726042917581
-0,0330293547171384
-0,0321619778103128
-0,0311324719001404
-0,0299067645236937
-0,0284581973114517
-0,0267707081066232
-0,0248414448849211
-0,0226825789358752
-0,0203221372503745
-0,0178037424011211
-0,0151852273121331
-0,0125361761419681
-0,00993452446955901
-0,00746242562803548
-0,00520164940959961
-0,00322881965456022
-0,00161081504185288
-0,000400651081008196
0,000365868839742645
0,000672497345071591
0,000523715567967708
-5,53498525692812E-05
-0,00102026086977625
-0,00230976077420679
-0,00384925226238328
-0,00555501993921467
-0,00733890716297742
-0,0091131298599452
-0,0107949065059817
-0,0123106037735935
-0,013599139575431
-0,0146144457382704
-0,0153268663914999
-0,015723449352384
-0,0158071698761321
-0,0155952027084741
-0,0151164234927037
-0,0144083694520636
-0,0135139183477057
-0,0124779522710724
-0,0113442588271428
-0,0101528884958398
-0,00893813676582363
-0,00772725769447594
-0,00653994742341096
-0,00538856780266571
-0,00427901750437558
-0,00321210609982873
-0,00218524969534165
-0,00119428769827072
-0,000235220252051567
0,000694315656487207
0,00159397866650045
0,00246016385941176
0,00328599618112684
0,00406186251939125
0,00477641301026162
0,00541791463009724
0,00597580481463032
0,006442272963527
0,00681369479180776
0,00709175875080588
0,00728415347955185
0,0074047275666819
0,0074730835759122
0,007513622491282
0,00755410723826778
0,00762385980866578
0,0077517414792668
0,00796408645077066
0,00828276413740845
0,00872353400423198
0,00929483055049389
0,00999707741295188
0,010822582438257
0,0117560144769346
0,0127754124691865
0,0138536328129326
0,0149601061178387
0,0160627523109987
0,0171298954999969
0,0181320273197239
0,0190432886305525
0,019842571905859
0,0205141870555292
0,0210480774873533
0,0214396165350223
0,0216890526636588
0,021800701427732
0,0217820002793621
0,0216425475004226
0,021393238601752
0,0210455936745407
0,0206113397716073
0,0201022767925693
0,0195304174322959
0,0189083556536139
0,0182497877432891
0,0175700884988725
0,0168868348126017
0,0162201709146563
0,0155929236723458
0,0150304011081175
0,0145598402063517
0,0142095076779642
0,0140074957807164
0,0139802905601788
0,0141512183101369
0,014538894659494
0,0151558074723104
0,0160071588790607
0,0170900736961047
0,0183932528978532
0,0198971144383084
0,0215744230464692
0,0233913696039047
0,0253090233194384
0,0272850497094882
0,0292755673003286
0,0312370077871486
0,0331278488426078
0,0349101051821178
0,0365504901526718
0,0380211941375639
0,0393002639560662
0,0403716052644981
0,0412246638968891
0,0418538686439543
0,0422579345295672
0,0424391306263719
0,042402609462423
0,0421558770594972
0,0417084556782655
0,0410717585223361
0,0402591607101643
0,0392862177632072
0,0381709556050984
0,0369341378907827
0,0355994098623966
0,0341932240654865
0,0327444719945545
0,0312837756589276
0,029842431293369
0,0284510403117655
0,0271379055642311
0,0259273094025672
0,0248378195143148
0,0238807851801873
0,0230591879440937
0,0223669953701808
0,0217891350212291
0,0213021599608511
0,0208756205067899
0,0204740943576862
0,0200597641372658
0,019595373813478
0,0190473489510645
0,0183888354307227
0,0176024006916561
0,016682152903537
0,0156350668597594
0,0144813590084921
0,0132538242486928
0,0119961284713285
0,0107601369065634
0,00960244177877471
0,00858032642708743
0,00774746012737542
0,0071496529140914
0,00682100893606796
0,00678079856877273
0,00703132429454578
