0,0198257741249151
0,0227501658152778
0,0252806995040684
0,0273249151142282
0,0288179555076272
0,0297256417193341
0,0300453997570477
0,0298050281242559
0,0290594580554296
0,0278858049631599
0,0263771283698294
0,0246353997331834
0,0227642176635553
0,0208618063245387
0,0190147873357311
0,0172931337995669
0,0157466054322681
0,0144028366014945
0,0132671155966899
0,0123237650066575
0,0115389198063643
0,0108644099698945
0,010242393853794
0,00961036006765083
0,00890611894259102
0,00807243709574528
0,00706102480380078
0,00583565905663352
0,00437430762147499
0,00267020333716255
0,000731896089401303
-0,00141762333692373
-0,00374258226892051
-0,00619668946138277
-0,00872580892170294
-0,011270851710978
-0,0137707080264454
-0,0161650665302298
-0,0183969981373823
-0,0204152133818186
-0,0221759326324471
-0,0236443343878268
-0,0247955673544112
-0,025615326815106
-0,0261000057057901
-0,0262564374257053
-0,0261012525241672
-0,0256598769941658
-0,0249652074120848
-0,0240560084144044
-0,0229750910655771
-0,0217673455065246
-0,0204777163428429
-0,0191492221551346
-0,0178211288420473
-0,0165273878955184
-0,0152954432727533
-0,0141454933385175
-0,0130902674870849
-0,0121353418810295
-0,01127997774696
-0,0105184223301562
-0,00984157103732299
-0,00923885386009361
-0,00870018384150149
-0,00821779350885099
-0,00778778888433831
-0,00741127050574724
-0,00709490586503303
-0,00685088501343062
-0,00669624682214095
-0,00665162222731775
-0,00673949716390086
-0,00698214602318163
-0,00739942140232892
-0,00800660373889709
-0,0088125129607295
-0,0098180632000583
-0,0110154025858261
-0,0123877267360648
-0,0139097918368724
-0,0155490873594012
-0,0172675659826203
-0,0190237756269016
-0,020775200938342
-0,0224806031836479
-0,0241021502354509
-0,0256071521106123
-0,0269692600117416
-0,028169043797814
-0,0291939284521734
-0,0300375376198126
-0,0306985546911123
-0,0311792624775389
-0,0314839559552632
-0,0316174349809784
-0,0315837738024702
-0,0313855322537767
-0,0310235228208691
-0,0304971832407054
-0,0298055325683906
-0,0289486170921238
-0,0279292886569788
-0,0267551088254636
-0,0254401433568329
-0,0240064064718533
-0,0224847344628383
-0,0209149123474658
-0,0193449417153281
-0,0178294170501688
-0,0164270642389803
-0,0151975805798237
-0,0141979920286743
-0,013478803079147
-0,0130802513860007
-0,0130289888657707
-0,0133354918761913
-0,0139924561003598
-0,014974360557388
-0,0162382954615624
-0,0177260480752947
-0,0193673378566808
-0,0210839960633952
-0,0227948038779369
-0,0244206443085344
-0,0258895917217832
-0,0271415618177847
-0,0281321743253715
-0,0288355383647787
-0,0292457514415639
-0,0293770007064325
-0,0292622613357669
-0,0289506929156006
-0,0285039319569543
-0,0279915593920977
-0,0274860798576712
-0,0270577804821011
-0,0267698389294866
-0,026674023987789
-0,0268072799692221
-0,0271894133021051
-0,027822012455614
-0,0286886379631288
-0,0297562255511597
-0,0309775595085529
-0,0322946019028059
-0,0336424110136706
-0,0349533526469517
-0,0361613020733147
-0,0372055514528297
-0,038034175242596
-0,0386066601402262
-0,0388956714307718
-0,0388878983502968
-0,0385839913800338
-0,0379976686625947
-0,0371541223918349
-0,0360878954097937
-0,0348404214244285
-0,0334574283692079
-0,0319863945282108
-0,0304742230377777
-0,0289652655431798
-0,0274997838244504
-0,0261128933238216
-0,0248339887234604
-0,0236866126503464
-0,0226886972311227
-0,0218530864735367
-0,0211882364174406
-0,0206989894870191
-0,0203873285794317
-0,0202530331996188
-0,0202941821509774
-0,020507472127193
-0,0208883464265081
-0,0214309504194703
-0,0221279484499829
-0,0229702491063917
-0,0239466917439947
-0,0250437467624671
-0,0262452763090774
-0,027532391963278
-0,0288834332666328
-0,0302740774269678
-0,0316775778000177
-0,0330651183492204
-0,0344062640696597
-0,0356694839908499
-0,0368227235946954
-0,0378340069040363
-0,0386720539695684
-0,039306905825047
-0,0397105547964589
-0,0398575820736756
-0,0397258056805365
-0,0392969398362847
-0,0385572611189979
-0,0374982683058831
-0,036117312253344
-0,0344181611266005
-0,0324114563415315
-0,0301150074698729
-0,0275538716815552
-0,0247601662401094
-0,0217725718753588
-0,0186355004636361
-0,0153979217520068
-0,0121118693394821
-0,00883067387945346
-0,00560699887762954
-0,0024907789922445
0,000472820392197212
0,00324529254922177
0,0057963967297701
0,00810536176066939
0,0101615843532366
0,0119647504248889
0,0135243454570393
0,0148585628216562
0,0159926637233291
0,0169568853111421
0,017784030906201
0,0185069048269973
0,0191557712586821
0,0197560201675934
0,0203262126685216
0,0208766539726978
0,021408605622673
0,0219142029059509
0,0223770914962745
0,0227737437077247
0,023075363350449
0,0232502432857889
0,0232664049184641
0,0230943268681986
0,0227095626499016
0,0220950549723749
0,0212429765216529
0,020155962037131
0,0188476412390011
0,0173424332062743
0,0156746160310851
0,0138867369351499
0,0120274735950431
0,0101490938786857
0,00830468603722838
0,00654534310685492
0,00491748342996018
0,00346047445875875
0,00220470103957463
0,00117018458791562
0,000365819035911781
-0,000210753551696051
-0,000572646907258346
-0,000742671462724311
-0,000751801419305209
-0,000637280654227894
-0,000440494322810352
-0,000204737619839091
2,69911759778706E-05
0,000214058361177607
0,000320026292074722
0,000314173979540821
0,000172656138963011
-0,000120725974114247
-0,000574146366822707
-0,0011877540177546
-0,00195402041207658
-0,00285839359907954
-0,00388021022509211
-0,00499381314279119
-0,00616982102129102
-0,00737649695677508
-0,0085811646480598
-0,009751622519192
-0,0108575079358538
-0,0118715652142635
-0,0127707726963555
-0,0135372862419774
-0,0141591596573798
-0,0146308075344789
-0,0149531832576122
-0,0151336549551207
-0,0151855748806654
-0,015127552843805
-0,0149824610437676
-0,0147762149016851
-0,0145363908181083
-0,0142907556484214
-0,0140657925770173
-0,0138853125959501
-0,0137692390583035
-0,0137326442612198
-0,0137851019105947
-0,0139303984341286
-0,0141666208485621
-0,0144866112020235
-0,0148787498110153
-0,0153280040469458
-0,0158171586216549
-0,0163281292883734
-0,0168432560200673
-0,0173464748732292
-0,0178242798106889
-0,0182664058309948
-0,0186661910973186
-0,0190206060493347
-0,0193299688366003
-0,0195973958708733
-0,0198280609736691
-0,0200283539757377
-0,0202050379037418
-0,0203645021316094
-0,0205121970302559
-0,0206523148081581
-0,0207877533419856
-0,0209203675078911
-0,0210514791323937
-0,0211825855557779
-0,0213161812078937
-0,0214565893594049
-0,0216106943430543
-0,0217884690728363
-0,0220032085585607
-0,0222714060786944
-0,0226122424521841
-0,0230466973138381
-0,0235963307380648
-0,0242818200665995
-0,025121366605991
-0,0261291068203267
-0,027313670357767
-0,028677021593512
-0,03021370239662
-0,0319105629248506
-0,0337470270505517
-0,0356958930897273
-0,0377246230784812
-0,0397970294700415
-0,0418752310861189
-0,0439217242311936
-0,0459014027960012
-0,0477833644176457
-0,0495423583247763
-0,0511597629485431
-0,0526240247826492
-0,0539305403843167
-0,0550810159677367
-0,0560823886732954
-0,0569454352838603
-0,057683223652125
-0,0583095761581514
-0,0588377113916196
-0,0592792098666679
-0,0596434135590272
-0,0599373206383897
-0,0601659805599564
-0,0603333361806631
-0,0604434046899679
-0,0605016436797883
-0,0605163176050436
-0,060499667002212
-0,0604686901972066
-0,0604453750013717
-0,0604562642146555
-0,0605312998419324
-0,0607019614219111
-0,0609987873261828
-0,0614484372128817
-0,0620705122526334
-0,0628743911110619
-0,0638563594187059
-0,0649973057761208
-0,0662612277844485
-0,0675947389367856
-0,0689276955395232
-0,0701749780501069
-0,0712393706606908
-0,0720153945387571
-0,0723938718676008
-0,0722669367485738
-0,0715331707709586
-0,070102529164011
-0,0679007390173179
-0,0648728926203732
-0,0609860226946846
-0,0562305261078496
-0,0506203911636536
-0,0441922724131883
-0,0370035379272977
-0,0291294796506911
-0,0206599220853946
-0,01169548437778
-0,00234374496223469
0,0072844722764029
0,017078521588264
0,0269309640266093
0,0367401666616138
0,0464125055903332
0,0558642631488475
0,065023349169749
0,0738309924756504
0,0822435393158184
0,0902344601439385
0,097796608045643
0,104944696953594
0,111717883591042
0,118182253291295
0,124432936593116
0,13059553041692
0,136826472947532
0,143312030930452
0,150265604837571
0,157923140585384
0,16653655204729
0,176365198840628
0,187665618441314
0,200679868124705
0,21562297726826
0,232670130985226
0,251944290221749
0,273504992044551
0,297339061060081
0,323353896836646
0,35137388530766
0,381140320992655
0,412315031877678
0,444487683221212
0,477186515667502
0,509892062752816
0,542053208553749
0,573104801351335
0,602485944383176
0,629658046851019
0,654121739893353
0,675431841274311
0,693209682867256
0,707152286695445
0,717038075461675
0,722729017508184
0,724169318647914
0,721380969552401
0,714456624261693
0,703550412499901
0,688867368703932
0,670652190735057
0,64917802164334
0,624735882812015
0,597625283606058
0,568146401070163
0,536594074464337
0,503253705410276
0,468399006557198
0,432291410314968
0,395180842622203
0,35730749097223
0,318904154169538
0,280198754179257
0,241416615842988
0,202782174009578
0,164519843739832
0,126853880640592
0,0900071573640249
0,0541988812871238
0,0196413703238725
-0,0134639173232351
-0,0449308425934976
-0,0745932371930244
-0,102309432849396
-0,127966358632645
-0,151482922853793
-0,172812440613508
-0,191943927370515
-0,208902148615161
-0,223746391023372
-0,236567996460299
-0,247486772081495
-0,256646453245074
-0,264209447240377
-0,270351122092126
-0,275253923969778
-0,279101608195272
-0,282073852719752
-0,284341490622037
-0,28606255201962
-0,287379249046376
-0,288415974171537
-0,289278316481028
-0,290053037142041
-0,290808888434876
-0,291598114371921
-0,292458438097248
-0,29341532407456
-0,294484302455777
-0,295673158618388
-0,296983821075161
-0,29841382309195
-0,299957263737314
-0,301605248455217
-0,30334584306169
-0,30516362383136
-0,307038946059321
-0,308947080975015
-0,310857383985737
-0,31273265506027
-0,314528835038037
-0,316195151447443
-0,317674786810315
-0,318906095044958
-0,319824341605192
-0,320363894725007
-0,320460752669229
-0,320055258767117
-0,319094834859955
-0,317536556261321
-0,315349397814073
-0,312516000363684
-0,30903383813717
-0,304915707393042
-0,300189501934883
-0,294897288034549
-0,289093736321261
-0,282844007917911
-0,276221223813361
-0,26930366810539
-0,26217188626844
-0,254905838775456
-0,247582258942332
-0,240272343201184
-0,233039874205963
-0,225939844607482
-0,219017614635008
-0,212308602259867
-0,205838473015671
-0,199623769399924
-0,193672898575339
-0,1879873827406
-0,182563269342847
-0,177392598147339
-0,172464828419602
-0,167768141253901
-0,163290548152828
-0,159020756105372
-0,15494876017613
-0,151066155739004
-0,1473661826517
-0,14384353177167
-0,140493959281824
-0,137313765552467
-0,13429920216489
-0,131445872921542
-0,128748192132774
-0,126198956348945
-0,123789074546627
-0,121507487226357
-0,119341288035649
-0,117276043474045
-0,115296288408505
-0,113386158840072
-0,111530110022623
-0,109713658805705
-0,107924084903369
-0,106151027238745
-0,10438691868525
-0,102627215070429
-0,100870391322564
-0,0991176978491671
-0,0973726919120022
-0,0956405800687625
-0,0939274266405749
-0,0922392978777668
-0,0905814204141466
-0,0889574346954018
-0,0873688188032916
-0,0858145456677353
-0,0842910178961682
-0,0827923007982292
-0,081310647666231
-0,07983728422546
-0,0783633939110527
-0,0768812245285566
-0,0753852220269044
-0,0738730899683165
-0,0723466747607508
-0,0708125868305443
-0,0692824860206698
-0,0677729841496898
-0,0663051468703342
-0,0649036082941198
-0,0635953426388105
-0,0624081648902054
-0,0613690547692348
-0,0605024133911574
-0,0598283686687028
-0,0593612433257154
-0,0591082886314668
-0,0590687686927529
-0,0592334559587798
-0,059584570583304
-0,0600961667773079
-0,0607349405878445
-0,0614614078660852
-0,0622313802927935
-0,0629976525734101
-0,0637118059570275
-0,0643260322381409
-0,0647948878025889
-0,0650768981946578
-0,0651359486462545
-0,0649424135395419
-0,0644739961579392
-0,0637162678290584
-0,0626629113492898
-0,0613156864518471
-0,0596841444669764
-0,0577851250761212
-0,0556420704362183
-0,0532841914711369
-0,0507455186341085
-0,0480638657894968
-0,0452797320082486
-0,0424351627570146
-0,0395725898540628
-0,0367336689440954
-0,0339581342098942
-0,0312826923386797
-0,0287399809087134
-0,0263576197132067
-0,0241573863011809
-0,0221545484410681
-0,0203573856013826
-0,0187669283904508
-0,0173769389391158
-0,0161741464675873
-0,0151387410679581
-0,0142451156726578
-0,0134628321436663
-0,0127577734019472
-0,0120934307243184
-0,0114322648040114
-0,0107370720386558
-0,00997228447443721
-0,00910513357465064
-0,00810661459093974
-0,00695219970463969
-0,00562226366295348
-0,00410220450292459
-0,00238226285039343
-0,000457064806968574
0,00167506603062134
0,00401296391326627
0,00655356626661262
0,00929286311311233
0,0122267624844614
0,0153517883523611
0,0186655390976843
0,022166852404088
0,025855645697479
0,0297324283560168
0,0337975109892433
0,038049965944798
0,0424864195379796
0,0470997779995774
0,0518780037656347
0,0568030647601559
0,0618501756937642
0,0669874366364383
0,0721759506249434
0,0773704700071982
0,0825205825828951
0,087572406022138
0,0924707157399196
0,0971613908457159
0,101594028496992
0,105724552219039
0,109517627208921
0,112948697191384
0,116005473838244
0,118688740753999
0,121012377915223
0,123002566419464
0,124696193612425
0,126138540495274
0,127380391759191
0,128474758826673
0,129473443341131
0,130423688925499
0,131365170275587
0,132327549833239
0,133328794155733
0,134374387117834
0,135457509260219
0,136560177243641
0,137655260608728
0,138709221370972
0,139685361643554
0,140547320937552
0,141262542140161
0,141805425825553
0,142159916873745
0,14232131361241
0,14229715417549
0,142107111983526
0,141781915599053
0,141361390265277
0,140891791956363
0,140422663063681
0,140003476644859
0,1396803500072
0,13949309702094
0,139472853064723
0,139640450239524
0,14000564880149
0,140567250447242
0,141314037828386
0,142226410185627
0,143278524423342
0,144440710022058
0,145681908751704
0,146971897740094
0,148283086080606
0,149591727539876
0,150878459584502
0,152128154952782
0,153329148554668
0,154471971667345
0,155547780116605
0,156546697602256
0,157456305970121
0,158260499710552
0,158938883673054
0,159466834651581
0,159816274983369
0,159957127003573
0,159859339212083
0,15949530647492
0,158842454711595
0,157885730950389
0,156619735848273
0,155050258624692
0,153195022146257
0,151083514321769
0,148755864652303
0,146260813877358
0,143652911554054
0,140989152632545
0,138325322117215
0,135712350870944
0,133192991977541
0,130799104853204
0,128549785272245
0,126450507981353
0,124493361103079
0,122658356091173
0,120915702378956
0,119228850760321
0,117558041815325
0,115864051477644
0,114111809187572
0,1122735763638
0,110331412947875
0,10827872372062
0,106120758026593
0,103874028957461
0,101564712530848
0,0992261754989796
0,0968958543710846
0,0946117616578654
0,0924089238566748
0,0903160572128799
0,0883527622116671
0,086527468849258
0,0848362968164491
0,0832629142722275
0,0817793931834152
0,0803479759648298
0,0789235945041228
0,0774569247602408
0,0758977224950573
0,0741981709028645
0,0723159794540232
0,0702170035223646
0,0678772028740124
0,0652838189234708
0,0624357198750631
0,0593429331684227
0,0560254498618208
0,0525114402912017
0,0488350602891031
0,0450340496417679
0,0411473282467573
0,0372127811826603
0,033265393822961
0,0293358556635469
0,025449701084564
0,021627001757596
0,0178825737322748
0,0142266169715256
0,0106656699804794
0,00720373990721024
0,00384346051012927
0,000587136787108085
-0,00256244529188841
-0,00560153492682027
-0,00852531109562888
-0,011328165770056
-0,0140043433167543
-0,016548864816384
-0,0189586343295996
-0,021233602271923
-0,0233778508663911
-0,0254004688898249
-0,0273160973753671
-0,0291450533293535
-0,0309129726956454
-0,032649953971427
-0,0343892267226576
-0,0361654113357182
-0,0380124742290095
-0,0399615134034607
-0,0420385300962649
-0,0442623516423873
-0,0466428675351374
-0,0491797250905253
-0,05186160402556
-0,0546661523877096
-0,0575606221883346
-0,0605031948191389
-0,0634449373032719
-0,0663322841813733
-0,0691098997102046
-0,0717237441116493
-0,0741241482386794
-0,0762686948983915
-0,0781247129504815
-0,0796712119465272
-0,0809001193399438
-0,0818167270385405
-0,0824393064147411
-0,0827979073202016
-0,0829324132501267
-0,0828899776017972
-0,082722011060776
-0,0824809241577281
-0,0822168492189052
-0,0819745704909844
-0,081790879429235
-0,0816925444224895
-0,0816950421984384
-0,0818021445221979
-0,0820063921777527
-0,0822904229824244
-0,0826290564239565
-0,0829919792442752
-0,0833468284284957
-0,0836624344139305
-0,083911970844106
-0,0840757594891786
-0,084143500376903
-0,0841157365531241
-0,0840044176688133
-0,0838324929936168
-0,0836325376648683
-0,0834444905938216
-0,083312652779196
-0,0832821553514534
-0,0833951526759132
-0,0836870234324065
-0,0841828693442244
-0,0848945862322298
-0,0858187461160673
-0,0869354745953338
-0,0882084385814624
-0,0895859807176617
-0,0910033543401318
-0,0923859328316541
-0,0936531957087605
-0,0947232362053512
-0,095517495808933
-0,0959654131185024
-0,0960086788396411
-0,0956048152819416
-0,0947298452790088
-0,0933798783663052
-0,0915715165264398
-0,0893410621860973
-0,086742591450412
-0,083845029909476
-0,0807284314685431
-0,0774797082432182
-0,0741880885925893
-0,0709405893431709
-0,0678177772019498
-0,0648900648264531
-0,062214741885534
-0,0598338846112698
-0,0577732234593713
-0,0560419824570324
-0,0546336404960582
-0,0535275085873087
-0,0526909715340914
-0,0520822102318246
-0,051653203271725
-0,0513528040167942
-0,051129700927965
-0,050935092807275
-0,0507249441561538
-0,0504617258482166
-0,0501155894245234
-0,0496649661487359
-0,0490966214602073
-0,0484052290617347
-0,0475925546378123
-0,0466663559622183
-0,0456391134675368
-0,0445267035401139
-0,0433471168180322
-0,0421193070531676
-0,0408622345239894
-0,0395941435436089
-0,0383320884197206
-0,0370916982604211
-0,0358871500149419
-0,034731302547549
-0,0336359333334307
-0,0326120141625115
-0,0316699631160359
-0,0308198167326098
-0,0300712779910773
-0,0294336114171446
-0,0289153749561272
-0,0285239977120534
-0,0282652316565413
-0,0281425223754768
-0,0281563574040089
-0,0283036594710663
-0,0285772951427165
-0,0289657663767402
-0,0294531433374442
-0,0300192818510047
-0,0306403489940861
-0,0312896568264682
-0,0319387788380237
-0,032558898277619
-0,0331223141594911
-0,0336040114920263
-0,0339831889475406
-0,034244631296321
-0,0343798164577713
-0,0343876583382681
-0,0342748064588996
-0,034055450672855
-0,0337506124048139
-0,0333869405173044
-0,0329950674874353
-0,0326076171279314
-0,0322569857239307
-0,0319730415155563
-0,0317809007133052
-0,0316989401968478
-0,0317371969975007
-0,0318962828624404
-0,0321669098212694
-0,03253008180728
-0,0329579608946212
-0,0334153679722003
-0,033861830407431
-0,0342540471576419
-0,0345486082598369
-0,0347047835102147
-0,0346871863946928
-0,034468124944215
-0,0340294709901385
-0,0333639120072967
-0,0324754930354076
-0,0313794068199737
-0,0301010444998978
-0,0286743727113119
-0,027139751734759
-0,0255413494911862
-0,0239243346625734
-0,0223320467963509
-0,0208033408553862
-0,0193702884299784
-0,0180563890506417
-0,016875405134873
-0,0158308863337503
-0,0149163972991802
-0,0141164112999573
-0,013407784742752
-0,0127616881296982
-0,0121458402299601
-0,0115268762080959
-0,010872677990625
-0,0101545059653968
-0,00934879380548639
-0,00843850043433436
-0,00741395185886202
-0,00627314731228694
-0,00502154527803516
-0,00367138217128229
-0,00224060686341037
-0,000751535772622759
0,000770655296104407
0,00229948523011427
0,00380865868486794
0,00527340170066454
0,00667157170835469
0,00798449737461704
0,00919752995877692
0,0103003121614429
0,0112867907688815
0,0121550141895086
0,012906764477691
0,0135470756088282
0,0140836862746588
0,0145264675964453
0,0148868555727634
0,0151773066400698
0,0154107842614548
0,0156002764631298
0,0157583398165692
0,0158966649864768
0,0160256624481853
0,0161540736098223
0,0162886210048463
0,0164337198779859
0,0165912805877663
0,0167606351411347
0,0169386205470374
0,0171198457209882
0,0172971572580186
0,0174623031320909
0,0176067735487081
0,0177227767220373
0,017804286565976
0,017848081700896
0,0178546831942035
0,017829094100892
0,0177812485418272
0,0177260923202151
0,0176832405116737
0,0176761887020428
0,0177310912686787
0,017875159281691
0,0181347687312911
0,018533403188608
0,0190895802411387
0,019814925188762
0,0207125565130325
0,0217759346083777
0,0229882985068063
0,0243227764496309
0,0257432079060352
0,0272056607878951
0,0286605725371447
0,0300553921359083
0,0313375564406568
0,0324576024991911
0,0333722007022955
0,0340468935017357
0,0344583413704446
0,0345959105513924
0,0344624834439503
0,0340744284999182
0,0334607277154313
0,0326613211741363
0,0317247846038783
0,0307055029835397
0,0296605370901609
0,028646397977501
0,0277159455090325
0,0269156115210282
0,0262831176967648
0,0258458157349101
0,0256197268081671
0,0256093031531005
0,0258078814939388
0,0261987503270837
0,0267567145166519
0,0274500139434342
0,0282424396179925
0,0290954909524351
0,0299704307708531
0,0308301180015265
0,0316405288884784
0,0323719124817
0,0329995615555005
0,0335042124986635
0,0338721143766794
0,0340948261872962
0,0341688113486398
0,034094899634128
0,0338776801156868
0,0335248759533325
0,0330467354769681
0,0324554565547653
0,0317646453306505
0,0309887982695254
0,0301427896875909
0,0292413463998427
0,0282984967173436
0,0273269918635704
0,0263377122722419
0,0253390869802311
0,0243365689217946
0,0233322199620757
0,0223244647679135
0,0213080706935229
0,0202744009214291
0,0192119704756907
0,0181073105035809
0,0169461174934004
0,0157146335384033
0,0144011745184431
0,0129976983950344
0,0115012886659836
0,00991542086797222
0,00825088440299117
0,0065262484570306
0,00476778874729944
0,00300882952850139
0,00128849992312908
-0,000350048392699807
-0,00186186786942506
-0,00320274957721087
-0,00433189561914733
-0,0052145384807984
-0,00582430994838269
-0,00614517168447447
-0,00617274476831776
-0,00591491496435082
-0,00539164141560333
-0,0046339550698528
-0,00368219481372608
-0,00258358912385929
-0,00138934405188513
-0,000151440133743001
0,00108063232946783
0,00226296069170485
0,00335989020358589
0,00434609436997535
0,00520787621315992
0,00594359786347706
0,00656320138909525
0,00708685309426593
0,00754281126166155
0,00796467813394808
0,0083882459739126
0,00884818033709725
0,00937479842966614
0,00999119527988704
0,0107109455722983
0,0115365661349904
0,0124588663590749
0,013457245585909
0,0145009229375164
0,0155510118082543
0,0165632839903751
0,0174914124665998
0,0182904416943405
0,0189202131032393
0,0193484733350963
0,0195534138211924
0,0195254312228227
0,0192679562153399
0,0187972687890669
0,0181412964542858
0,0173374715026926
0,0164297986846972
0,0154653494414399
0,0144904479962573
0,0135468441215027
0,0126681746568313
0,0118769998646668
0,0111826623476121
0,0105801580032514
0,0100501344829413
0,00956004824473475
0,00906642278401227
0,00851806469733527
0,0078600174868976
0,00703797145132953
0,00600280659103815
0,00471492769871834
0,00314805841833359
0,00129219392820384
-0,00084453206316817
-0,00323523502715754
-0,00583500182139484
-0,0085829306039784
-0,0114053748502503
-0,0142201880683931
-0,0169416898408477
-0,0194860174648408
-0,0217764951026356
-0,0237486465835132
-0,0253544993805922
-0,02656587438437
-0,0273764255024291
-0,0278022797173483
-0,0278812256588768
-0,0276704997947804
-0,0272433165431385
-0,0266843748646458
-0,0260846429398919
-0,0255357694758237
-0,0251244918350935
-0,0249274063322065
-0,0250064354293933
-0,0254052729690121
-0,0261470163475316
-0,0272331094220321
-0,0286436284853873
-0,0303388527085357
-0,0322619766612948
-0,0343427517573011
-0,0365017903789983
-0,0386552342082242
-0,0407194783145296
-0,0426156545271333
-0,0442736095171292
-0,0456351614310964
-0,0466564793160228
-0,0473094967994303
-0,0475823401561005
-0,0474788158701272
-0,0470170596372266
-0,046227493931746
-0,0451502725117036
-0,043832406561167
-0,0423247688342932
-0,0406791606050216
-0,0389456037586888
-0,0371699898987478
-0,0353921831267254
-0,0336446363296879
-0,0319515452560434
-0,0303285326453354
-0,0287828278342598
-0,0273138864429209
-0,0259143801025326
-0,0245714772925412
-0,0232683323458269
-0,0219856994358005
-0,020703590800932
-0,0194029025769218
-0,0180669367461223
-0,0166827535200867
-0,0152422950136624
-0,0137432286316164
-0,0121894677376571
-0,0105913384134711
-0,00896537487520587
-0,00733374250332897
-0,00572330620593524
-0,00416438218568691
-0,00268923196061289
-0,00133037709968455
-0,000118829743211416
0,000917654235320718
0,00175618730021331
0,00238011795699191
0,00278005543261997
0,00295447197964812
0,00290983020108815
0,002660215238061
0,00222648743994442
0,00163500730369972
0,000916017899589946
0,000101797616465749
-0,00077528480488263
-0,00168467236510186
-0,00259934138396204
-0,00349721949479397
-0,00436220208037517
-0,00518470269114763
-0,00596171194081323
-0,00669638024242896
-0,00739717871492382
-0,00807672606048761
-0,00875039404020076
-0,00943481807695378
-0,0101464413244657
-0,0109002102510901
-0,0117085186503987
-0,0125804673766737
-0,0135214721941842
-0,014533215669939
-0,0156139049148374
-0,0167587687309964
-0,0179607082999876
-0,0192110068402947
-0,0205000064073479
-0,0218176736044024
-0,0231539986480968
-0,0244992010951332
-0,0258437470488181
-0,027178212904405
-0,0284930558476961
-0,0297783681696487
-0,0310236986582582
-0,0322180187710796
-0,0333498942649467
-0,0344078961085132
-0,0353812507079395
-0,0362606925928939
-0,0370394470959784
-0,0377142406534532
-0,0382862161552298
-0,0387616233808463
-0,0391521617380094
-0,0394748745541024
-0,0397515296388762
-0,0400074667744233
-0,0402699449323534
-0,0405660751902572
-0,0409204739482028
-0,0413528097829237
-0,0418754415379629
-0,0424913517458973
-0,0431925666359486
-0,0439592221866525
-0,0447593872333509
-0,045549693738304
-0,0462767565483175
-0,0468792967968151
-0,047290821362701
-0,0474426617680396
-0,0472671448171476
-0,0467006576692633
-0,0456863832616259
-0,0441765171085892
-0,0421338302087853
-0,0395325097292045
-0,0363582824153016
-0,0326078974833875
-0,0282881082215973
-0,0234143375278092
-0,0180092365813001
-0,0121013444046759
-0,00572402856274354
0,00108516419451848
0,00828468892661399
0,0158287387588537
0,0236666446748087
0,0317421245124782
0,0399926272469478
0,0483490535764016
0,0567361369409483
0,0650737369978711
0,0732792303888948
0,0812710851720701
0,0889735829257053
0,0963225166811647
0,103271556107114
0,109798847413756
0,115913317810618
0,121660094997593
0,127124440365447
0,132433635797848
0,137756359131796
0,143299228506836
0,149300382325156
0,156020176347953
0,163729306331602
0,172694885262728
0,183165199931514
0,195354024646853
0,20942546548036
0,225480335750206
0,243545016998012
0,263563639828135
0,285394232072903
0,308809239930853
0,333500547972533
0,359088826721218
0,385136744356293
0,411165314476178
0,436672435591068
0,461152527306653
0,484116095282763
0,505108068153604
0,523723844213735
0,539622156675602
0,552534100462477
0,562267942521998
0,568709639745498
0,571819290179089
0,571624020967225
0,568208049140696
0,561700821584993
0,552264236152131
0,540079961019704
0,525337804718839
0,508225951908792
0,488923682866247
0,467596955309922
0,44439696610651
0,41946154947164
0,392919028724411
0,364893939427567
0,335513897942491
0,304916811166511
0,273257614887922
0,240713788331806
0,207489013989621
0,173814522854304
0,13994787016006
0,10616910787102
0,0727745389959288
0,0400684376985435
0,0083532828427375
-0,0220808308547562
-0,050966878059277
-0,0780709542086118
-0,103201014373665
-0,126213722081871
-0,147018971595264
-0,165581815568091
-0,181921711951988
-0,196109185242043
-0,208260164301687
-0,218528400528162
-0,227096477114651
-0,23416598686239
-0,239947480012241
-0,244650765805188
-0,248476095844058
-0,251606670199479
-0,254202796717286
-0,256397909335871
-0,258296521856015
-0,259974068542951
-0,261478470113902
-0,262833169530808
-0,264041311187153
-0,265090692221476
-0,265959096504502
-0,266619629341397
-0,267045701461881
-0,267215360733681
-0,26711473462527
-0,266740420731801
-0,266100741508304
-0,26521585782073
-0,264116809490768
-0,262843615850939
-0,261442622347388
-0,259963318189026
-0,258454873585046
-0,256962652740902
-0,255524950843914
-0,254170180846274
-0,252914700747709
-0,251761426641984
-0,250699323866423
-0,24970381128971
-0,248738055501914
-0,247755075688403
-0,24670052955798
-0,245516008701275
-0,244142640592469
-0,242524775903028
-0,240613534938773
-0,238369996050761
-0,235767831238121
-0,232795228426157
-0,229455983910313
-0,225769699442492
-0,221771073174301
-0,217508328745454
-0,213040878702286
-0,208436363963097
-0,203767247353541
-0,199107164143804
-0,194527244569396
-0,19009262195653
-0,185859325534539
-0,181871730511041
-0,178160701356057
-0,174742520045235
-0,171618642201106
-0,168776273833366
-0,16618971293159
-0,16382235649287
-0,161629237300591
-0,159559927932018
-0,157561633454768
-0,155582289674643
-0,153573490513905
-0,151493085221957
-0,149307312203789
-0,146992369232968
-0,144535357351248
-0,141934575278345
-0,139199180104912
-0,136348265996459
-0,133409443543601
-0,130417026558374
-0,127409949442995
-0,124429546164881
-0,121517321379118
-0,118712835915908
-0,116051813705412
-0,113564556684744
-0,111274729977811
-0,10919855347531
-0,107344409696207
-0,10571285318833
-0,104296985192881
-0,10308314006609
-0,102051817779882
-0,101178790144557
-0,100436307172736
-0,0997943338283763
-0,0992217555349946
-0,0986875022143686
-0,0981615540881561
-0,097615806697804
-0,097024786293849
-0,0963662187566247
-0,0956214645669788
-0,0947758383842372
-0,0938188341732379
-0,0927442755887507
-0,0915504068628383
-0,0902399325018189
-0,0888200056429446
-0,0873021561510596
-0,0857021416675961
-0,084039699050528
-0,0823381709657211
-0,0806239835372551
-0,0789259562795933
-0,0772744349346357
-0,0757002508031306
-0,0742335257189021
-0,0729023586812709
-0,0717314467485369
-0,0707407074593131
-0,0699439811376931
-0,0693478975489014
-0,0689509914010169
-0,0687431445796827
-0,0687054196616676
-0,0688103297608502
-0,0690225652334697
-0,0693001697849313
-0,0695961291108156
-0,0698603065318473
-0,0700416343931135
-0,0700904493491842
-0,0699608457883564
-0,0696129157858775
-0,0690147467548014
-0,0681440593765193
-0,0669893877266442
-0,0655507295149482
-0,0638396252015635
-0,0618786583409795
-0,0597004034582485
-0,0573458798374011
-0,0548625975716697
-0,0523023043879387
-0,0497185567011824
-0,0471642453566468
-0,0446892053534597
-0,0423380299086089
-0,0401481934109306
-0,038148566474889
-0,0363583810675102
-0,0347866763720208
-0,0334322285247242
-0,0322839413723932
-0,0313216524734603
-0,0305172899555668
-0,0298363023674469
-0,0292392757926026
-0,0286836502171916
-0,028125450149442
-0,0275209520250825
-0,0268282221137152
-0,0260084722828624
-0,0250271959450917
-0,0238550615744353
-0,0224685553319893
-0,0208503766586675
-0,0189896005859823
-0,0168816276324213
-0,0145279464315718
-0,0119357359382425
-0,00911733363141372
-0,00608959424632456
-0,00287316096253021
0,000508331566106287
0,00402910478654538
0,00766211743336049
0,0113799623927382
0,0151557588361839
0,0189640155186653
0,0227814367968008
0,0265876387336101
0,0303657395580009
0,0341027877027734
0,037789992546438
0,0414227284585603
0,0450002921429253
0,0485254064953355
0,052003480653548
0,0554416546316209
0,0588476764267565
0,0622286780320024
0,0655899324523538
0,0689336847591498
0,0722581546897963
0,0755568051480475
0,0788179594460941
0,0820248303808149
0,0851559970769594
0,0881863325956986
0,0910883489520668
0,0938338892502685
0,0963960623307674
0,0987512868240221
0,100881291781173
0,102774912489578
0,104429524234105
0,10585197423204
0,107058902115643
0,108076380475324
0,10893885629161
0,109687427921241
0,110367546396951
0,111026279671155
0,111709319698936
0,112457941137894
0,113306133944215
0,114278128564573
0,115386511353291
0,116631090335743
0,11799862001015
0,119463432213571
0,120988952861802
0,122530016880393
0,124035831252059
0,125453384000724
0,12673105942119
0,127822200299134
0,128688358061209
0,129301992090614
0,129648418478269
0,129726863403967
0,129550542988887
0,129145764654373
0,128550119037037
0,12780990053499
0,126976953093394
0,126105181264206
0,125246991390206
0,124449932012957
0,123753785898838
0,123188329711435
0,122771924217633
0,122511032130213
0,122400687459239
0,122425865303384
0,122563630218233
0,122785880196733
0,123062456627762
0,123364361994372
0,123666818737683
0,123951915276165
0,124210617651824
0,124443975157932
0,12466341174933
0,124890067154979
0,125153226902264
0,1254879531338
0,125932092614479
0,126522889727925
0,127293466594714
0,128269447032006
0,129465994685572
0,130885508656745
0,132516174185761
0,134331504726753
0,136290939450834
0,138341482165209
0,140420289523254
0,142458044010099
0,144382885954062
0,146124633331294
0,14761899198863
0,148811454231844
0,149660601175392
0,150140562820705
0,150242447008575
0,149974620245718
0,149361804881763
0,14844304239046
0,147268655374674
0,145896415268746
0,144387182948783
0,142800330960645
0,141189275488514
0,139597441775503
0,138054958463911
0,13657632600157
0,135159235306769
0,133784630205785
0,132418016729024
0,131011930872802
0,129509390767569
0,127848085830452
0,125965000131912
0,123801134216396
0,121305981696923
0,118441434933853
0,115184836769715
0,111530959547648
0,107492773623369
0,103100959066398
0,098402209187304
0,0934564654197012
0,0883333028288727
0,0831077477373642
0,077855848678294
0,0726503359927866
0,0675566926714084
0,0626299206700216
0,0579122260046852
0,0534317675608856
0,0492025252236629
0,045225250088125
0,0414893709349575
0,0379756542028541
0,0346593558607758
0,031513567722411
0,028512450834426
0,0256340653323843
0,0228625479969109
0,020189451970719
0,0176141420910519
0,0151432271303805
0,0127890992060267
0,010567732881235
0,00849596488673572
0,00658852387243657
0,00485510400008534
0,00329777433047005
0,00190898807397709
0,000670404327914492
-0,000447335555267613
-0,00148381812028843
-0,00248708447712009
-0,00351099009645039
-0,0046118912294018
-0,00584491196010941
-0,00726008487151479
-0,00889867248093137
-0,010789964885406
-0,012948812617413
-0,0153740958305249
-0,0180482566884439
-0,0209379376754274
-0,0239956816459463
-0,0271625671287882
-0,0303715814845999
-0,0335514807086259
-0,0366308521130909
-0,0395420870778507
-0,0422249857200665
-0,0446297518952147
-0,046719191786448
-0,0484699973586822
-0,0498730711179452
-0,0509329243932278
-0,0516662514361196
-0,0520998403157194
-0,0522680243787579
-0,0522099019706412
-0,0519665558655394
-0,0515784879919612
-0,051083451733284
-0,0505148169708581
-0,0499005468391425
-0,0492628051917849
-0,0486181555241029
-0,0479782606740867
-0,0473509523651379
-0,0467415137533126
-0,0461540083691651
-0,0455924954981027
-0,0450619938729238
-0,044569090008974
-0,0441221309303606
-0,0437309890461904
-0,043406434831648
-0,0431591961739939
-0,0429988177047991
-0,0429324559494214
-0,0429637546935802
-0,0430919388479355
-0,0433112449734283
-0,0436107744462525
-0,0439748140555193
-0,0443836225306054
-0,0448146344313136
-0,045243989465443
-0,0456482597198395
-0,0460062229658897
-0,0463005195690057
-0,0465190348235685
-0,0466558676656976
-0,0467117792390626
-0,0466940580839493
-0,0466157891150006
-0,0464945667207331
-0,0463507436119234
-0,0462053518509895
-0,0460778667571662
-0,045984004776447
-0,0459337508652823
-0,0459297986039271
-0,0459665578068206
-0,0460298418342502
-0,0460972933946533
-0,0461395476569287
-0,0461220698210684
-0,0460075461214924
-0,0457586574690931
-0,0453410279554227
-0,0447261195793061
-0,0438938418902306
-0,0428346613725265
-0,0415510293607926
-0,0400579966331944
-0,03838294382131
-0,0365644246367741
-0,0346501882494695
-0,0326945123694826
-0,0307550343718927
-0,0288893095434258
-0,0271513497198018
-0,0255884000828585
-0,0242381961585165
-0,0231269081683152
-0,0222679284593943
-0,0216615937481118
-0,0212958623184041
-0,0211478927627113
-0,02118640109176
-0,0213746125754617
-0,0216735782776873
-0,0220455975408389
-0,0224574789616822
-0,0228833843207908
-0,0233070316038223
-0,0237230821950039
-0,0241375997525836
-0,0245675393782002
-0,0250392999901286
-0,0255864446498977
-0,0262467574897874
-0,0270588570657968
-0,0280586205758292
-0,0292756889397784
-0,0307303181505524
-0,0324308180405165
-0,0343717775885625
-0,0365332193465825
-0,0388807587720559
-0,0413667721776392
-0,0439325049969834
-0,0465109853132964
-0,0490305509335675
-0,0514187556727351
-0,0536063948493283
-0,05553138293647
-0,0571422280794578
-0,0584008777339781
-0,0592847545736168
-0,0597878586709336
-0,0599208765289915
-0,0597103051112226
-0,0591966647773952
-0,0584319343393764
-0,0574763902706624
-0,0563950671950732
-0,0552540759715959
-0,0541170180097506
-0,0530417201385911
-0,0520774848563417
-0,051263008645756
-0,0506250696007926
-0,0501780288761786
-0,0499241327102203
-0,0498545472029737
-0,0499510105969792
-0,0501879507175269
-0,0505348909414957
-0,0509589578978003
-0,0514273083193022
-0,0519093102177582
-0,0523783428823373
-0,0528131184094749
-0,053198471108957
-0,0535256064923535
-0,0537918448848324
-0,0539999324674985
-0,0541570219048576
-0,0542734434478742
-0,0543613944215009
-0,0544336701964327
-0,0545025440403674
-0,0545788785842602
-0,0546715206583087
-0,0547869971775751
-0,0549294959936394
-0,0551010854916338
-0,0553021031507824
-0,055531628521756
-0,055787951464774
-0,0560689523771074
-0,0563723267735475
-0,0566956102629155
-0,0570359891123604
-0,0573899130727195
-0,0577525575052703
-0,0581172077223208
-0,0584746568133049
-0,0588127167880439
-0,0591159402494827
-0,0593656357718875
-0,0595402356057161
-0,0596160412890309
-0,0595683341960883
-0,0593727976440386
-0,0590071589485839
-0,0584529277415106
-0,0576970845159663
-0,0567335635510088
-0,0555643787792478
-0,0542002602403128
-0,0526607015372306
-0,0509733628923364
-0,049172826496548
-0,047298756488361
-0,0453935701987404
-0,0434997752623758
-0,0416571642398341
-0,0399000807142442
-0,0382549758296153
-0,036738460783369
-0,0353560293528035
-0,0341015772064813
-0,0329577851074572
-0,0318973658822684
-0,0308851057659717
-0,0298805652864022
-0,0288412488497852
-0,0277260106003579
-0,0264984406738872
-0,02512997295494
-0,0236024733636455
-0,0219101052888306
-0,020060323076508
-0,0180739110416837
-0,0159840588169226
-0,0138345379142498
-0,0116771130082335
-0,00956837902753097
-0,00756625699140225
-0,0057264043596912
-0,00409879787396961
-0,0027247285792431
-0,0016344118683586
-0,000845363419210277
-0,000361629490550865
-0,000173892667235459
-0,00026040756739369
-0,000588660752305772
-0,00111759994262827
-0,00180024331843985
-0,0025864624426786
-0,00342573287518362
-0,00426966392956714
-0,00507415090713706
-0,00580103595883157
-0,00641921309523941
-0,00690516402137808
-0,00724295970551854
-0,00742380370823583
-0,00744522396437325
-0,0073100377531143
-0,00702521916044205
-0,00660078989188896
-0,00604883456834407
-0,00538271335542553
-0,00461651138928878
-0,00376472975647508
-0,00284219051152006
-0,00186410168481346
-0,000846210046556062
0,000195038839291671
0,00124241150467525
0,00227793454283501
0,00328312546243067
0,00423942614771397
0,0051288298154617
0,00593466402834967
0,00664246767777319
0,0072408815790689
0,00772246249449124
0,00808433014745446
0,00832856628032487
0,00846230319046629
0,00849746473797271
0,00845015308896359
0,00833970654358859
0,00818748459812132
0,00801546295566798
0,00784474097801534
0,00769407515506433
0,0075785534843193
0,00750851701430272
0,00748881695901051
0,00751847028006382
0,00759074570000744
0,00769367841326945
0,00781097819405396
0,00792326496587525
0,00800954070314211
0,00804878877719602
0,00802158284122198
0,00791158763011977
0,00770684338673914
0,00740074306614001
0,00699263541021012
0,00648801539658258
0,00589829411302516
0,00524017042052386
0,00453465457113796
0,00380581728815874
0,00307935516833941
0,00238107363574156
0,00173539162143026
0,0011639678187722
0,000684537386496839
0,000310031428474832
4,80308429244497E-05
-9,94172307041167E-05
-0,000135616479135813
-6,86918587233916E-05
8,92450189955794E-05
0,00032317553740436
0,000616424480737457
0,000951997483449285
0,00131391756312794
0,00168847374016159
0,00206530073485938
0,00243821928876165
0,00280578117548482
0,00317148065128669
0,00354361407109994
0,00393479065005858
0,00436111885168008
0,00484111353048271
0,00539438764939798
0,00604020807382672
0,00679600659203344
0,00767594407130124
0,00868962681048221
0,00984106925194797
0,0111279861064336
0,0125414798422193
0,0140661669793427
0,0156807597534231
0,0173590898557766
0,0190715299038839
0,0207867380560067
0,0224736239382817
0,0241034119537216
0,0256516630921893
0,0271001101847854
0,0284381652873127
0,0296639720030401
0,0307848997737307
0,0318174104246258
0,0327862676568244
0,0337231052101822
0,0346644159785798
0,0356490690286341
0,0367155007948218
0,0378987574245888
0,0392275845548015
0,0407217667284016
0,0423899101152026
0,0442278392477037
0,046217742272304
0,0483281520259487
0,0505147952706905
0,0527222835891112
0,0548865610735099
0,0569379704557157
0,0588047548012595
0,0604167798210344
0,0617092447580132
0,0626261490783922
0,0631232979382659
0,0631706604333991
0,0627539385916084
0,061875258568672
0,0605529544755261
0,0588204752479262
0,0567245015247471
0,0543224085339059
0,0516792491240564
0,0488644558645478
0,0459484712658748
0,0429995105051556
0,04008064260124
0,0372473458037894
0,034545653875361
0,0320109652918853
0,0296675407519345
0,0275286692070517
0,025597442025796
0,0238680413598737
0,0223274240431947
0,0209572673177963
0,0197360374540697
0,0186410462307407
0,0176503720396754
0,0167445403839593
0,0159078808757405
0,0151295025939278
0,0144038550714878
0,0137308667603868
0,0131156754353297
0,0125679848787862
0,0121010989111096
0,0117306972696728
0,0114734279976828
0,0113453980336296
0,0113606476650213
0,0115296954852261
0,0118582383557551
0,0123460854844037
0,0129863968166095
0,0137652833493524
0,0146618106194742
0,0156484267038462
0,0166918130908157
0,0177541316601827
0,0187946150189256
0,0197714222629676
0,0206436597517877
0,0213734487155196
0,0219279103754874
0,0222809363561723
0,0224146186219885
0,022320229399859
0,0219986671707604
0,0214603185700814
0,020724325862857
0,0198172927315286
0,0187715041315723
0,0176227753635496
0,0164080777807861
0,0151631105982558
0,0139199977025209
0,0127052837638576
0,0115383850569878
0,0104306181976446
0,00938488667753963
0,00839605391397315
0,00745197657435178
0,00653511775680739
0,00562461083547401
0,00469860569930637
0,00373670330121642
0,00272227437167527
0,00164446502727984
0,000499715514425103
-0,000707343236836269
-0,00196370029460569
-0,00324850968051802
-0,0045343357643556
-0,00578900665857363
-0,00697793183473865
-0,00806670050610011
-0,00902375271029362
-0,00982290761265021
-0,0104455439823841
-0,0108822552046884
-0,0111338432493194
-0,0112115691724975
-0,011136637480607
-0,010938953040958
-0,0106552470462152
-0,0103267180857798
-0,00999637161167765
-0,0097062630876202
-0,00949485523594649
-0,00939468787835917
-0,00943053111751958
-0,00961815156654283
-0,00996377057967993
-0,0104642372984014
-0,0111078824821192
-0,0118759661917044
-0,0127445876581943
-0,0136868925780148
-0,014675394049203
-0,0156842196476013
-0,0166911086841979
-0,0176790092038887
-0,0186371613644044
-0,019561599207388
-0,0204550525850176
-0,0213262809868602
-0,0221889171103605
-0,0230599365437071
-0,0239578978531518
-0,024901112602922
-0,0259059063407856
-0,0269851194777895
-0,0281469724774233
-0,0293943850850015
-0,0307247974847435
-0,0321304958766277
-0,0335993998684559
-0,0351162281103298
-0,0366639252124455
-0,0382252100343562
-0,039784094867122
-0,0413272278142894
-0,0428449266227634
-0,0443318000701411
-0,0457868904696046
-0,0472133147992608
-0,048617428668048
-0,0500075827979533
-0,0513925819409808
-0,0527799875676345
-0,0541744253202793
-0,0555760641277629
-0,056979425153768
-0,0583726557595839
-0,0597373679754675
-0,061049095280896
-0,0622783694331919
-0,0633923648828629
-0,0643570065406317
-0,0651393917692327
-0,0657103434728923
-0,0660468912130345
-0,0661344735033449
-0,065968667564077
-0,0655562822518604
-0,0649156935850688
-0,0640763570231829
-0,0630774921787857
-0,0619659990629542
-0,0607937251398647
-0,059614254468952
-0,0584794296969988
-0,0574358412950154
-0,0565215241795822
-0,0557630891432127
-0,0551734863396428
-0,0547505528841825
-0,0544764401824628
-0,0543179535682145
-0,0542277724629588
-0,0541464588711741
-0,0540051105343887
-0,0537284765623918
-0,0532383307314324
-0,0524568922945498
-0,0513100958859687
-0,0497305391589365
-0,0476599759649975
-0,0450512698974455
-0,041869772877182
-0,0380941410187462
-0,0337166404184939
-0,0287430247714691
-0,0231920820600075
-0,0170949478144387
-0,010494268096504
-0,00344326866667787
0,00399524853309892
0,0117499995060824
0,01974245811179
0,0278883267267711
0,0360993398639829
0,0442855036598423
0,0523578559595478
0,0602317943077119
0,06783096429909
0,075091632427133
0,0819673916176265
0,0884339713287402
0,0944938555028763
0,100180358886021
0,105560782648423
0,110738269686316
0,115852012089782
0,121075528949081
0,126612829883532
0,132692403344576
0,139559111082312
0,147464221154801
0,156653960064389
0,1673570980468
0,179772188734942
0,19405515538854
0,210307943080982
0,228568935249837
0,248805763134303
0,270911020918434
0,294701244686461
0,319919329600475
0,346240359573613
0,373280621156394
0,400609382851097
0,427762856268942
0,454259628285895
0,479616772585503
0,503365820155772
0,525067792871912
0,54432657967549
0,560800054641833
0,574208490820171
0,584340001109858
0,591052924249198
0,594275256591067
0,594001395962849
0,590286601611158
0,583239675760831
0,573014432613323
0,559800538109036
0,543814280309246
0,525289770763061
0,504470989095219
0,481604975407478
0,456936357851802
0,43070328576881
0,403134731020596
0,374449028945042
0,344853460941738
0,31454463596508
0,283709408630987
0,252526075553779
0,221165615411357
0,18979277732389
0,158566870953247
0,127642164739554
0,0971678507826742
0,0672875818415958
0,0381386247081371
0,00985070308261992
-0,0174553784484993
-0,0436692290210152
-0,0686923839798509
-0,0924397404938566
-0,114840831767802
-0,135840867851277
-0,155401484354917
-0,173501153489595
-0,190135224344121
-0,205315571350436
-0,219069841959196
-0,231440307345893
-0,242482334094521
-0,252262510620745
-0,260856479456109
-0,268346544782704
-0,274819142556894
-0,28036227653075
-0,285063035491348
-0,289005313123091
-0,292267850253904
-0,294922708623079
-0,297034265188283
-0,298658786760514
-0,299844607786814
-0,30063289173954
-0,301058911935763
-0,301153744383404
-0,30094622735405
-0,300465013573285
-0,29974052443141
-0,298806613799107
-0,297701763089137
-0,296469658953326
-0,295159048912322
-0,293822825369181
-0,292516350851258
-0,291295102099785
-0,290211772545246
-0,289313026509284
-0,288636139441387
-0,288205782765183
-0,288031216914885
-0,288104140788525
-0,288397410710798
-0,288864789213215
-0,289441817143998
-0,290047826584392
-0,290589032384116
-0,290962562754521
-0,291061220128297
-0,290778707640312
-0,290015018356004
-0,28868166671146
-0,286706445906364
-0,284037420950783
-0,28064591283886
-0,276528291607333
-0,271706470323736
-0,266227073057884
-0,260159331892011
-0,253591845356452
-0,246628398103535
-0,239383094767112
-0,23197509653513
-0,224523265055644
-0,21714101442885
-0,20993164913412
-0,202984426047964
-0,196371525537117
-0,190146054114009
-0,184341133877508
-0,178970066658781
-0,174027497902716
-0,169491450767784
-0,165326057824124
-0,161484788235674
-0,157913953462461
-0,154556274306305
-0,151354305508789
-0,148253539190205
-0,145205042615401
-0,142167526100441
-0,139108780142589
-0,136006463945789
-0,13284826762685
-0,129631505137218
-0,126362222588062
-0,123053926121922
-0,119726044340324
-0,116402242779417
-0,113108702848456
-0,109872466191582
-0,106719929126672
-0,103675552301725
-0,100760829640292
-0,0979935395569076
-0,0953872816278473
-0,0929512844602654
-0,0906904561307709
-0,088605637724692
-0,0866940133244822
-0,08494962622912
-0,0833639509351125
-0,0819264731357512
-0,0806252352107952
-0,0794473119247323
-0,078379189822389
-0,0774070336419023
-0,0765168334745841
-0,0756944369246186
-0,0749254806895518
-0,0741952452755377
-0,073488464496071
-0,0727891274257684
-0,0720803141116767
-0,0713441071118596
-0,0705616185182821
-0,0697131663039896
-0,0687786246791509
-0,0677379608971476
-0,0665719561840803
-0,0652630920224116
-0,0637965659762077
-0,0621613848978023
-0,0603514690844569
-0,0583666901695636
-0,0562137594697079
-0,0539068832100502
-0,0514681071290268
-0,0489272856043222
-0,0463216292813528
-0,043694809317798
-0,0410956243652452
-0,0385762664230563
-0,036190251574762
-0,0339901090217972
-0,0320249445216347
-0,030338010278675
-0,0289644209458401
-0,0279291536534791
-0,027245458589251
-0,0269137860526095
-0,026921307296101
-0,0272420717241967
-0,0278378045478204
-0,0286593095733957
-0,0296484043198553
-0,0307402818987972
-0,031866168498205
-0,0329561287744381
-0,0339418651333243
-0,0347593611359373
-0,0353512336020683
-0,0356686810897047
-0,0356729463396481
-0,0353362444799012
-0,0346421445219207
-0,0335854261089257
-0,0321714640167343
-0,030415217344112
-0,0283399171388743
-0,0259755545273156
-0,023357271244954
-0,0205237464981428
-0,0175156597418548
-0,0143742901071607
-0,0111402920724147
-0,0078526658028686
-0,00454792149807504
-0,00125942184106152
0,00198312356052727
0,0051540424150426
0,00823199237213037
0,0112001859444102
0,0140465622878407
0,0167639091325462
0,0193499267540189
0,0218072161416898
0,0241431669595511
0,0263697186474862
0,0285029706230257
0,0305626250026348
0,0325712568956207
0,0345534219677708
0,0365346270343896
0,0385402051022337
0,0405941497169023
0,0427179730094998
0,0449296562145286
0,0472427598649959
0,0496657532325901
0,0522016093291755
0,0548476940320177
0,0575959571863694
0,0604334117746264
0,0633428664503923
0,0663038588549512
0,0692937238195308
0,0722887230039824
0,0752651613642143
0,0782004210277013
0,0810738540488488
0,083867490876628
0,0865665395568001
0,0891596698036298
0,0916390941814248
0,0940004739564528
0,0962426882833727
0,0983675113807418
0,100379242861363
0,102284331746769
0,104091025736814
0,105809065393006
0,107449429644515
0,109024126233984
0,110546010027199
0,112028604943873
0,113485902559443
0,114932112555229
0,116381346970174
0,117847230783065
0,119342444444818
0,120878217908333
0,122463808636682
0,124106006223633
0,125808712115938
0,127572643391158
0,129395204130013
0,131270556807766
0,133189910135502
0,135142020369547
0,137113882185917
0,139091564935887
0,141061132722447
0,143009574246944
0,144925662401537
0,146800665092722
0,148628838048875
0,150407646829198
0,152137687635788
0,153822302881364
0,155466915353358
0,157078131619732
0,158662688381732
0,160226332495718
0,16177273454145
0,163302536049987
0,164812621574014
0,166295689356509
0,167740169888503
0,169130512309825
0,170447827062368
0,17167084230227
0,172777104158498
0,173744329473769
0,174551806108188
0,175181731389371
0,175620384189466
0,175859039795742
0,175894557867954
0,175729600284831
0,175372465067389
0,174836552165158
0,174139504066455
0,173302086666193
0,172346891870927
0,171296951992202
0,1701743568089
0,168998957801886
0,16778723162874
0,166551358136138
0,165298549109183
0,164030644589858
0,162743975890595
0,161429479903774
0,160073038956207
0,158656014668567
0,157155942783994
0,155547357888311
0,153802721133295
0,151893428968622
0,14979088499268
0,147467619050656
0,144898436729877
0,142061578085969
0,138939857075075
0,135521743655701
0,131802340328437
0,127784195804205
0,123477892496781
0,118902343473625
0,114084739831513
0,109060102035832
0,10387040863462
0,098563302081559
0,093190402445633
0,0878052930484563
0,0824612744630773
0,0772090114823661
0,0720942183334329
0,0671555377316631
0,0624227672664045
0,0579155711129791
0,0536427864240688
0,0496023935954475
0,0457821707821182
0,0421609994938837
0,0387107344901436
0,0353985024864726
0,0321892551639829
0,029048376774247
0,0259441382486267
0,0228497997034722
0,0197451913964416
0,0166176476283416
0,0134622251906178
0,0102812027953283
0,00708292458397192
0,00388011300249671
0,000687827977866975
-0,00247871486499364
-0,00560623811159049
-0,00868518554498142
-0,0117109988510859
-0,0146847402289407
-0,0176129764253011
-0,020506913125632
-0,0233808452683389
-0,0262500613363915
-0,0291284008709664
-0,0320257080658474
-0,0349454456168325
-0,0378827293096159
-0,0408230147645557
-0,0437416153677911
-0,0466041590586503
-0,0493680075410123
-0,05198457226485
-0,0544023754130393
-0,0565706292850786
-0,0584430511085722
-0,0599815980853961
-0,0611598028807013
-0,061965413773322
-0,0624020946595476
-0,0624900138714223
-0,0622652410549243
-0,0617779702416063
-0,0610896860295044
-0,0602694796331706
-0,0593897944479021
-0,0585219301348469
-0,0577316556180144
-0,0570752728554651
-0,0565964355328356
-0,0563239632935393
-0,056270808381004
-0,0564342350721334
-0,0567971714979891
-0,0573305972029618
-0,0579967464061269
-0,0587528434625562
-0,0595550487373089
-0,0603622828836147
-0,0611396157910712
-0,0618609510916273
-0,0625108036721644
-0,0630850499090986
-0,0635906207861326
-0,0640441986704712
-0,0644700614393624
-0,0648972858998154
-0,0653565705594375
-0,0658769622238251
-0,0664827702702564
-0,0671909276444203
-0,0680090116429562
-0,068934075090527
-0,0699523656098398
-0,0710399339890522
-0,0721640589305549
-0,07328535092974
-0,0743603478029526
-0,0753443821362563
-0,0761944885380871
-0,0768721261548417
-0,0773455177383646
-0,0775914474735742
-0,0775964114164875
-0,0773570717276116
-0,0768800236594365
-0,0761809374835964
-0,0752831819819986
-0,074216068534338
-0,0730128733021401
-0,071708798962904
-0,0703390276608335
-0,0689369952645334
-0,067532986511489
-0,0661531146187744
-0,0648187111193587
-0,0635461155683166
-0,0623468234336284
-0,0612279262989034
-0,0601927629428
-0,0592416934667429
-0,0583729110053251
-0,0575832155074509
-0,0568686897715613
-0,0562252371708163
-0,0556489609716764
-0,0551363846020922
-0,0546845287960501
-0,0542908738152177
-0,0539532421698869
-0,0536696392466719
-0,05343808646108
-0,0532564748989629
-0,0531224581818684
-0,0530333929330175
-0,052986325178253
-0,0529780125695004
-0,0530049664251749
-0,0530634948253443
-0,0531497285013642
-0,0532596147358382
-0,0533888702828934
-0,0535328915250229
-0,0536866276494326
-0,0538444295250968
-0,05399989226926
-0,054145712549766
-0,0542735821161098
-0,0543741368646456
-0,0544369762431041
-0,0544507615687681
-0,0544033946589762
-0,0542822709129956
-0,054074594489304
-0,0537677381824963
-0,0533496275285291
-0,0528091277529556
-0,0521364133728106
-0,0513233032232553
-0,0503635478674715
-0,0492530611006912
-0,0479900918750065
-0,0465753368498882
-0,0450119964590017
-0,0433057786415132
-0,0414648542751252
-0,0394997671293688
-0,037423299328426
-0,0352502914877455
-0,0329974154961769
-0,0306828979129221
-0,0283261935134209
-0,0259476117444444
-0,0235679035522708
-0,0212078217158291
-0,0188876736839319
-0,0166268910480616
-0,0144436431775367
-0,0123545233139542
-0,0103743328866264
-0,00851598366702644
-0,0067905277651747
-0,00520731300707045
-0,0037742470133859
-0,00249813880469735
-0,00138507369135069
-0,000440767352039934
0,000329160016464515
0,000919047546437393
0,00132324576125469
0,00153639244227657
0,00155392722354211
0,00137283463911632
0,000992577818788812
0,000416157775533194
-0,000348790815806047
-0,00128897448515414
-0,00238460316610062
-0,00360885563547936
-0,00492775209712455
-0,00630051465691542
-0,00768046337112615
-0,00901645486068054
-0,010254825325995
-0,0113417540263516
-0,0122259209931086
-0,0128612979780947
-0,0132098879637969
-0,0132442186851128
-0,0129494011461121
-0,012324585307357
-0,0113836808416764
-0,010155258642027
-0,00868160498434433
-0,00701696044383484
-0,00522503491180268
-0,00337594343284353
-0,00154275057681038
0,000202159969021804
0,00179066141899919
0,00316218141131513
0,00426651904857181
0,00506601674622053
0,00553697134309885
0,00567022578928371
0,00547094243708782
0,00495761652780069
0,0041604392018323
0,00311915923573736
0,00188061881915004
0,000496149357830088
-0,000980991689651132
-0,0024979813859536
-0,00400445925616079
-0,00545413268326324
-0,0068059145466184
-0,0080245928329976
-0,00908107298142381
-0,00995226723533444
-0,0106207285110307
-0,0110741376236503
-0,0113047516668563
-0,0113089087293933
-0,0110866618041069
-0,0106415854612523
-0,00998076599144597
-0,00911495284490778
-0,00805881984390471
-0,00683126188275626
-0,00545563900991509
-0,0039598763694609
-0,0023763358354105
-0,000741392661535744
0,000905323561034441
0,00252203234764677
0,00406622386680831
0,00549633761184464
0,00677360616696502
0,00786394762578201
0,00873977488451782
0,0093815854289407
0,0097792021082153
0,00993255349098349
0,00985191053676779
0,00955753243454069
0,00907871581713529
0,0084522849483016
0,0077206024839452
0,00692921768098221
0,0061242984479363
0,00535001293945299
0,00464603380943625
0,00404533295043218
0,00357241673788006
0,00324212259955577
0,00305905915765783
0,00301772701987043
0,00310330882589054
0,00329306900649697
0,00355825953000751
0,00386639109243546
0,00418370265741959
0,004477648120153
0,00471921839103856
0,00488493057364743
0,00495834226156971
0,00493098638479305
0,00480266768699656
0,00458111225181897
0,00428101256725421
0,00392255828983232
0,00352958322771163
0,00312748873005135
0,00274112004513014
0,00239277381456339
0,00210050139687953
0,00187684514863246
0,00172810538051112
0,00165418772442272
0,00164902823991858
0,00170154135380789
0,00179698834715973
0,00191862596206205
0,00204946940008779
0,00217399408225323
0,00227960721405471
0,00235774312947701
0,00240447374245769
0,00242057395328538
0,00241103718057416
0,00238409314019139
0,00234983312716013
0,00231859211306613
0,0022992673677138
0,00229776668165664
0,00231577368807736
0,0023499931387609
0,00239199697353819
0,00242873601158437
0,00244371698043983
0,00241877626049582
0,00233631658240745
0,00218181732696775
0,00194638868911163
0,00162911924543843
0,00123896814220906
0,000795977984679497
0,000331631195605704
-0,000111762280986761
-0,000482679714893698
-0,000722951545577712
-0,000771142995401307
-0,000566539596028233
-5,34637711837368E-05
0,000814390659635909
0,00206993461255067
0,00372928774028417
0,00578928985079142
0,00822613799400006
0,0109952873477725
0,0140326615793803
0,0172571211847962
0,0205740444276006
0,0238797927100307
0,0270667673048926
0,0300287226264457
0,03266598587247
0,0348902448779852
0,0366286040139567
0,0378266683447556
0,0384504935920113
0,0384873269594074
0,0379451540482005
0,0368511523899296
0,0352492256417309
0,0331968485356323
0,0307614872865556
0,0280168713837927
0,0250393806958633
0,0219047788416039
0,0186854738310341
0,0154484254156314
0,0122537515951979
0,00915402068203267
0,00619415622195932
0,00341183497340109
0,00083822671445194
-0,00150108909239714
-0,00358519061410526
-0,00539700528816184
-0,00692273236985622
-0,00815156014826866
-0,00907569465789523
-0,00969067079798741
-0,00999587667275679
-0,00999519170993468
-0,00969762154877886
-0,00911780926310076
-0,00827631314348757
-0,00719956449772584
-0,00591945198489591
-0,00447251818184199
-0,0028987951692369
-0,00124034459129965
0,000460400079025437
0,0021623687021541
0,0038275358974122
0,00542241958332003
0,00691928199309829
0,0082969439584745
0,00954115701173824
0,0106445165582797
0,0116059392246684
0,0124297646585646
0,0131245730456252
0,0137018315718405
0,0141744940826346
0,0145556774248851
0,0148575256892169
0,0150903511819178
0,0152621107117124
0,0153782406805612
0,0154418378833863
0,0154541382991175
0,0154152167320532
0,0153248086005185
0,0151831434477976
0,0149916788587992
0,0147536334939517
0,0144742379436147
0,0141606502888305
0,0138215171324707
0,0134661974302765
0,0131037025322161
0,0127414382259473
0,0123838604111666
0,0120311729581462
0,0116782026746101
0,0113135813215
0,0109193483547908
0,0104710615122309
0,00993846728484532
0,00928674219515467
0,00847827160708676
0,00747488878096081
0,00624045637351932
0,00474363868351952
0,00296068838307734
0,000878058350550153
-0,00150535112470742
-0,00417648660342789
-0,00710712837012484
-0,0102536839480794
-0,0135578559085541
-0,0169481988623625
-0,0203425247526765
-0,0236510604363466
-0,0267802107518817
-0,0296367373003449
-0,0321321310266128
-0,0341869377532928
-0,0357347915828393
-0,036725922120565
-0,0371299273217663
-0,036937643007944
-0,0361619903728045
-0,0348377410251022
-0,0330202016423416
-0,0307828831599274
-0,0282142786027653
-0,0254139253699127
-0,0224879687067294
-0,0195444706141349
-0,0166887208235924
-0,0140188029561447
-0,0116216498970023
-0,00956978907896893
-0,007918933047657
-0,00670651645232572
-0,00595122107322305
-0,00565346966709028
-0,00579681129310294
-0,00635006921033206
-0,00727008076033084
-0,00850482950421184
-0,00999675502997873
-0,0116860260134496
-0,0135135769753764
-0,0154237373376991
-0,0173663205176108
-0,0192980877761278
-0,0211835526909424
-0,0229951434881456
-0,0247127880966291
-0,0263230270728091
-0,0278177894658664
-0,0291929841001673
-0,0304470625216595
-0,0315797000124277
-0,0325907187687621
-0,0334793448086
-0,0342438505092238
-0,0348815916149371
-0,0353894051189193
-0,0357642965940531
-0,0360043158700407
-0,0361095012434254
-0,0360827664514598
-0,0359306119934716
-0,03566356234525
-0,0352962611997735
-0,0348471950285241
-0,0343380571105599
-0,0337928053973171
-0,0332365037835533
-0,032694063573553
-0,0321890169903505
-0,031742455467362
-0,0313722515787645
-0,0310926557116962
-0,0309143193597579
-0,0308447499232685
-0,0308891518065413
-0,031051560633328
-0,0313361368239013
-0,0317484563358427
-0,0322966238300478
-0,0329920391856568
-0,0338496727266955
-0,034887746398248
-0,0361267742707099
-0,0375879813436266
-0,0392911885960095
-0,0412523178614193
-0,043480725577605
-0,0459766135392418
-0,0487287825315994
-0,0517129879473313
-0,0548911242194372
-0,0582114085505337
-0,0616096578000289
-0,0650116614304256
-0,068336555735716
-0,0715010088404709
-0,0744239410628713
-0,0770314395753227
-0,0792614868463324
-0,0810681140781142
-0,0824246160564236
-0,0833255219329955
-0,0837871038359822
-0,0838463155016926
-0,0835581776507973
-0,0829917553182241
-0,0822249937984536
-0,0813387835107532
-0,0804107003730491
-0,0795089097351484
-0,078686723919953
-0,0779782646117632
-0,0773956038965737
-0,0769276472492855
-0,0765408867436441
-0,0761820040842697
-0,0757821529646643
-0,0752626113403025
-0,074541378307742
-0,0735402074738763
-0,0721915263284173
-0,0704446932197548
-0,0682710903247232
-0,0656676389340178
-0,0626584453799854
-0,059294431961655
-0,0556509651840969
-0,0518236503497709
-0,0479226039843003
-0,0440656319199735
-0,0403708215623075
-0,0369490954943945
-0,0338972673548392
-0,0312920909960655
-0,0291857051968074
-0,0276027569177241
-0,0265393470568752
-0,0259637963019295
-0,0258190878276078
-0,0260267204212653
-0,0264916104411987
-0,0271076214126009
-0,0277632801931377
-0,0283472588447972
-0,0287532582224459
-0,0288840159580534
-0,0286542684056667
-0,0279926117914868
-0,0268423202429257
-0,0251612759766015
-0,022921239850404
-0,0201067315133154
-0,0167137937136558
-0,0127488849947957
-0,00822808285330198
-0,00317669289064157
0,00237074132309422
0,00837013600632752
0,0147674736575992
0,0214985900058979
0,028489451722204
0,0356572348851061
0,0429124720470039
0,0501624531435657
0,0573159481762327
0,0642891773394
0,0710127999636676
0,0774395423184025
0,0835519515741525
0,0893696639256549
0,0949555214943215
0,100419874141865
0,105922462997045
0,111671401465889
0,117918940478743
0,124953916481846
0,133091017746281
0,142657248556214
0,15397620192537
0,167350950117092
0,183046510880671
0,201272931963125
0,222170048004933
0,245794899034965
0,272112661242448
0,300991737384669
0,332203400308069
0,365426097146181
0,400254225057888
0,436210904208342
0,472764021554923
0,509344618797112
0,545366564360385
0,580246391941139
0,613422210313202
0,644370687812714
0,672621281237076
0,697767098633865
0,71947204050545
0,737474133771532
0,751585236195578
0,761687525755903
0,767727382204227
0,769707403465461
0,76767736935854
0,761724966724061
0,751967026531408
0,738541903194612
0,721603461896805
0,701316947046756
0,67785680168474
0,651406311444641
0,622158773958655
0,590319759042658
0,556109936513229
0,519767912504179
0,481552532314893
0,441744174195349
0,400644665996846
0,35857559406622
0,315874927798996
0,272892039743651
0,229981346365929
0,187494916449053
0,145774483157081
0,105143345832277
0,065898656147892
0,0283045514772763
-0,0074134691297508
-0,0410726267509596
-0,0725352172599444
-0,101709177094278
-0,128546919430963
-0,153042609375417
-0,175228136257182
-0,195168104953151
-0,212954203126929
-0,228699306807483
-0,242531664831923
-0,254589457487873
-0,265015962019357
-0,2739554842483
-0,28155013854111
-0,287937484436313
-0,293248963297578
-0,297609026856196
-0,301134814335968
-0,303936217142273
-0,306116169332609
-0,307771016287231
-0,308990840041612
-0,309859653776139
-0,310455415806445
-0,310849850999691
-0,311108101239552
-0,311288253497953
-0,311440812313432
-0,311608192091168
-0,311824303727356
-0,312114300610376
-0,312494532774338
-0,312972737114398
-0,313548468596933
-0,31421375481024
-0,314953936293861
-0,315748639731199
-0,316572821637946
-0,317397817333375
-0,318192333805041
-0,318923334986026
-0,31955678285173
-0,32005821603044
-0,320393167470463
-0,320527442134246
-0,320427292759506
-0,320059544702548
-0,319391728399611
-0,318392279112187
-0,317030858047812
-0,315278836896504
-0,313109970159307
-0,310501257758692
-0,307433976165015
-0,303894831783565
-0,299877167936985
-0,295382138664831
-0,290419750737927
-0,285009671299956
-0,279181703345252
-0,272975845050065
-0,266441871268476
-0,259638404955391
-0,252631480883024
-0,245492641216297
-0,238296639348522
-0,231118861834492
-0,224032605351934
-0,217106363847657
-0,210401288472005
-0,203968978511348
-0,197849745133674
-0,192071462244541
-0,186649081907534
-0,181584848236581
-0,176869196672055
-0,172482278702796
-0,16839600905215
-0,164576496499233
-0,160986693724009
-0,157589087883835
-0,154348253146462
-0,151233099111898
-0,148218673898969
-0,145287415598547
-0,142429787953182
-0,139644282113399
-0,136936812480297
-0,134319577358274
-0,131809491170656
-0,129426321711339
-0,127190681538788
-0,125122026334374
-0,123236805060676
-0,121546888184204
-0,120058373062384
-0,118770832419114
-0,117677035616373
-0,116763136220276
-0,116009286063221
-0,115390608073343
-0,114878439443401
-0,114441744368732
-0,114048591913202
-0,113667599134888
-0,113269251293067
-0,112827028137486
-0,112318285963529
-0,111724867232191
-0,111033431076479
-0,110235517227752
-0,109327371463794
-0,108309571791319
-0,107186500933878
-0,105965712525982
-0,104657236340822
-0,103272862861532
-0,101825440637789
-0,1003282122808
-0,0987942076288847
-0,0972357063497035
-0,0956637774719943
-0,0940879002288662
-0,0925156689507869
-0,0909525841709635
-0,0894019320107076
-0,0878647536891418
-0,0863399060850984
-0,0848242122758335
-0,0833126977396314
-0,0817989035376879
-0,0802752626856001
-0,0787335206774179
-0,0771651765086762
-0,0755619173195056
-0,0739160186783035
-0,0722206840424341
-0,0704703012999771
-0,0686606013745752
-0,0667887131743186
-0,0648531198328473
-0,0628535321134541
-0,0607907047675493
-0,0586662292726165
-0,0564823405914414
-0,0542417755607433
-0,0519477158138063
-0,0496038388566744
-0,0472144876747679
-0,0447849531969178
-0,0423218466310134
-0,0398335219705335
-0,0373304947915951
-0,0348257936607222
-0,0323351765800724
-0,0298771479406309
-0,0274727218186569
-0,025144894788462
-0,0229178146504361
-0,0208156588111384
-0,0188612651924354
-0,0170745868284242
-0,0154710659743956
-0,0140600420056156
-0,012843317471475
-0,0118140068713483
-0,0109557823771287
-0,0102426100887262
-0,00963904069165084
-0,00910108165301891
-0,00857763712466739
-0,00801245976336306
-0,0073465191550051
-0,00652065775224744
-0,00547838008056229
-0,00416860663955889
-0,0025482217415627
-0,000584254775149696
0,00174444364185754
0,00444613716012773
0,00751581785286327
0,0109355220442765
0,0146753257414126
0,0186949548057509
0,0229459075669579
0,0273739580690198
0,0319218883453209
0,0365322890160731
0,0411502691615158
0,0457259280945087
0,0502164618853193
0,0545878042876998
0,0588157328017524
0,0628864035991545
0,0667963116996539
0,0705517031747626
0,0741674927545343
0,077665761992541
0,0810739295712949
0,0844226962949608
0,0877438730570008
0,0910682010511297
0,0944232702786388
0,0978316355441145
0,101309219109296
0,104864076341009
0,108495585284741
0,112194103295595
0,11594111384823
0,119709864704813
0,123466475231884
0,127171466553648
0,130781644442078
0,134252242696002
0,137539215766661
0,140601555174209
0,143403496396519
0,145916482711159
0,148120760838828
0,150006500484399
0,151574355601933
0,152835418274004
0,153810554588015
0,154529153280914
0,155027359186474
0,15534590144012
0,155527657770215
0,155615118232929
0,155647922208419
0,15566064008113
0,155680955473269
0,155728376044503
0,155813562614571
0,155938320599201
0,156096248040663
0,156273984892076
0,156452962729913
0,15661151650296
0,15672719339486
0,15677908056945
0,156749974532604
0,156628229897525
0,156409153062258
0,156095844215168
0,155699435811012
0,155238723319175
0,154739230549709
0,154231793339374
0,153750778482226
0,153332077022835
0,153011020943697
0,152820369583168
0,152788497665049
0,152937892483858
0,153284036281418
0,153834714383252
0,154589753675871
0,155541162784976
0,156673617706474
0,157965216791392
0,159388418143336
0,160911070966629
0,162497459553051
0,164109292954446
0,165706592839024
0,167248454093786
0,16869367479196
0,170001271773381
0,171130913241118
0,172043309056146
0,172700602094289
0,173066800188939
0,173108278576602
0,172794368778749
0,172098033262669
0,170996608041559
0,169472579571618
0,167514349645419
0,165116933818851
0,162282536067786
0,159020945099026
0,155349705687524
0,151294030738686
0,146886435214713
0,142166090151383
0,1371779121483
0,131971419509534
0,12659939940088
0,121116440129559
0,115577388478538
0,110035793890131
0,104542399545921
0,0991437356344977
0,0938808631783562
0,088788308545277
0,0838932200533163
0,0792147695126114
0,07476381361663
0,070542822925539
0,0665460797733608
0,0627601404602094
0,0591645512381319
0,0557328014227367
0,0524334901759599
0,0492316759354988
0,0460903692198366
0,042972120936253
0,0398406500014438
0,0366624468448981
0,0334082841470866
0,0300545639362205
0,0265844317453585
0,0229885945493897
0,0192657898984909
0,0154228689172605
0,0114744750235479
0,00744232233101259
0,00335410130825443
-0,000757937265743022
-0,00485864749872856
-0,00891181235543903
-0,0128820234388157
-0,0167365074741119
-0,0204467913920518
-0,023990106241418
-0,027350445396643
-0,0305192136977852
-0,0334954298145084
-0,0362854724508811
-0,0389023899800041
-0,0413648206696085
-0,0436955948898475
-0,0459201099539853
-0,0480645812821473
-0,0501542796556601
-0,0522118632282065
-0,0542559049758267
-0,0562997021681853
-0,0583504353837772
-0,0604087219765333
-0,0624685843125934
-0,0645178281015939
-0,0665388022723898
-0,0685094903954781
-0,0704048657288926
-0,0721984283579862
-0,073863834136767
-0,0753765214307574
-0,0767152430148391
-0,0778634166166684
-0,0788102181201267
-0,0795513557512203
-0,080089480975743
-0,0804342115342241
-0,0806017631355646
-0,0806142078709242
-0,0804983983675205
-0,0802846160255024
-0,0800050183183459
-0,0796919730734076
-0,0793763759790831
-0,0790860505648123
-0,0788443270722691
-0,0786688878251655
-0,0785709521079375
-0,078554853784917
-0,078618040969643
-0,0787515003484324
-0,0789405810193477
-0,0791661657804242
-0,0794061136865095
-0,0796368782317543
-0,0798351923358558
-0,0799797055893969
-0,0800524616455272
-0,0800401142377604
-0,0799347984827549
-0,0797345986154432
-0,0794435823383906
-0,0790714033293239
-0,0786325047072325
-0,0781449849641535
-0,0776292117453899
-0,0771062860371271
-0,0765964684969088
-0,0761176801918215
-0,0756841820131317
-0,0753055213386293
-0,0749858125848842
-0,0747233921066183
-0,0745108597335654
-0,0743354914616569
-0,0741799826799188
-0,0740234607209002
-0,0738426908786365
-0,0736133921403722
-0,0733115778375213
-0,072914841746635
-0,0724035207674719
-0,0717616797141871
-0,070977880239806
-0,0700457127421466
-0,0689640856644434
-0,0677372796460104
-0,0663747836752218
-0,064890936438799
-0,0633043986628588
-0,0616374820387398
-0,0599153583398536
-0,0581651697020909
-0,0564150589515455
-0,0546931382905839
-0,0530264162817453
-0,0514397070912507
-0,0499545521317225
-0,0485881918041066
-0,047352632836128
-0,0462538633284272
-0,0452912715206009
-0,0444573240921804
-0,0437375543973228
-0,0431108998042994
-0,04255041026991
-0,0420243281142638
-0,0414975130375508
-0,0409331586941753
-0,0402947199856452
-0,0395479462647626
-0,0386628973970206
-0,0376158093740126
-0,0363906755956603
-0,0349804199597925
-0,0333875585539656
-0,0316242770583532
-0,0297118890793539
-0,027679683832367
-0,0255632165932103
-0,0234021385251617
-0,0212377002369383
-0,0191100924293334
-0,0170558045723202
-0,015105186905743
-0,0132803914508816
-0,0115938445586617
-0,0100473683506476
-0,00863202379379565
-0,0073286974513586
-0,00610940107275186
-0,00493920219539324
-0,00377865878477487
-0,00258659506860392
-0,00132303183026732
4,79258017494965E-05
0,00155543599095366
0,00321967842082588
0,0050501684052217
0,00704473270593978
0,00918920697385339
0,0114578659732751
0,013814549751707
0,0162144051156153
0,0186061250922907
0,0209345417284924
0,0231434110165827
0,025178223437818
0,0269888792345401
0,0285320829207163
0,0297733349786116
0,0306884279779301
0,031264387121192
0,0314998290685665
0,031404745617112
0,0309997485485611
0,0303148372643576
0,0293877707588739
0,0282621395633724
0,0269852415008925
0,0256058677327086
0,0241721032595322
0,0227292394670717
0,0213178863184341
0,0199723591358211
0,0187194003286994
0,017577280512713
0,0165553067646692
0,0156537487197564
0,0148641762559572
0,0141701860392401
0,0135484786586508
0,0129702339439385
0,0124027198565519
0,0118110606211605
0,0111600830532138
0,0104161567854045
0,00954894465010859
0,0085329839701314
0,00734902787412904
0,0059850876628562
0,00443713212932073
0,00270941677625669
0,00081443413434131
-0,00122750522903882
-0,00338903394283158
-0,00563678869100229
-0,00793271527864754
-0,0102355530330946
-0,012502427914143
-0,0146904816942241
-0,0167584661159741
-0,0186682355921941
-0,0203860792394644
-0,021883842148808
-0,0231397961723135
-0,0241392315442721
-0,0248747519009716
-0,0253462664083173
-0,0255606835583525
-0,0255313217099714
-0,0252770616151389
-0,0248212760022846
-0,0241905807052697
-0,0234134606573274
-0,0225188319492197
-0,0215346075799873
-0,0204863388301876
-0,0193960056337855
-0,0182810271552941
-0,0171535573856606
-0,0160201195320578
-0,0148816172394447
-0,0137337405995208
-0,0125677612865879
-0,0113716853197985
-0,0101317055540062
-0,00883387108196301
-0,0074658693980358
-0,00601880154414562
-0,00448882235004013
-0,00287851866762426
-0,0011979089186168
0,000535032737358585
0,00229439560563535
0,004046927331847
0,00575319648922203
0,00736927307740903
0,00884883702650896
0,0101455897649965
0,0112158170314324
0,0120209349151381
0,0125298472942978
0,0127209521340935
0,0125836560799135
0,012119289967052
0,0113413597081711
0,0102751142354047
0,00895646088128116
0,00743030476626792
0,00574842856112925
0,0039670590678811
0,00214428497089334
0,000337494419466317
-0,00139900830639965
-0,00301606987345345
-0,00447133402832265
-0,00573040181262011
-0,00676748401081905
-0,00756556640322618
-0,0081161461483341
-0,0084186272434117
-0,00847948188979333
-0,00831129125671642
-0,00793177334217417
-0,00736288845876862
-0,00663008655402855
-0,00576172830226
-0,00478867749569734
-0,0037440297362742
-0,00266291563390856
-0,00158229884898211
-0,000540682650887971
0,000422355776871202
0,00126686658962592
0,00195349966521765
0,0024447485819907
0,00270642789371719
0,00270930732863374
0,00243079351945693
0,00185652591829548
0,000981741870515134
-0,000187731589564254
-0,00163498419036562
-0,00333212071053895
-0,00524100181024733
-0,007314627439988
-0,00949910903959254
-0,0117361248630201
-0,0139657079643389
-0,0161291831646613
-0,018172051257563
-0,020046617919414
-0,0217141817644485
-0,0231466295090186
-0,0243273333999266
-0,0252513026996169
-0,025924601886404
-0,0263631076523159
-0,0265907291869162
-0,0266372567024963
-0,0265360279135746
-0,0263216090022278
-0,0260276750215923
-0,0256852460713461
-0,0253213929841411
-0,0249584741277835
-0,0246139086296245
-0,0243004366378389
-0,0240267697057175
-0,0237984988100159
-0,023619107412624
-0,0234909342325327
-0,0234159450735629
-0,0233962033893364
-0,023433971826703
-0,0235314270740005
-0,0236900224483463
-0,023909581035917
-0,0241872415388179
-0,0245164048375251
-0,0248858386911852
-0,0252790896720522
-0,0256743259824443
-0,0260446946377477
-0,0263592255911337
-0,0265842588818014
-0,0266853145560554
-0,026629274787815
-0,0263867085359473
-0,0259341454102776
-0,0252560998058675
-0,0243466596555289
-0,0232104853400605
-0,0218631105698765
-0,0203304941587522
-0,0186478342102586
-0,0168577184831416
-0,0150077408142087
-0,0131477582838196
-0,0113269932792908
-0,0095911961921411
-0,0079800773626711
-0,00652519198917399
-0,0052484216339277
-0,00416114460656044
-0,00326412976635889
-0,00254812946241418
-0,00199509269878296
-0,00157987383028538
-0,00127227889158918
-0,00103927342386137
-0,000847173323787194
-0,000663653253544868
-0,000459433567377084
-0,000209543493399919
0,000105898385480615
0,000501399690074834
0,000986275425452771
0,00156522624688459
0,00223921578736661
0,00300653023446285
0,00386389619374547
0,00480753721737814
0,00583406404228441
0,00694111658866221
0,0081277045446025
0,00939422503154345
0,0107421675011099
0,0121735450029745
0,0136901150451041
0,0152924708136549
0,0169790935458462
0,0187454590741164
0,0205832862949344
0,0224800034374277
0,0244184907556366
0,0263771371944707
0,0283302252990653
0,030248634824958
0,0321008326940034
0,0338540965067722
0,0354759019270695
0,0369353917827754
0,0382048373469731
0,0392610003438015
0,0400863078869694
0,0406697616731583
0,0410075169210462
0,041103085098277
0,040967136500087
0,0406169030802093
0,0400752071864393
0,0393691665184604
0,0385286480447983
0,0375845622210277
0,0365671021402628
0,0355040390216011
0,0344191848614523
0,0333311247886273
0,0322523059007262
0,0311885469116384
0,0301390052121235
0,0290966068108193
0,0280489123409256
0,0269793613523663
0,0258688098870134
0,0246972551068081
0,0234456272539902
0,0220975246980191
0,0206407726504786
0,0190686999873892
0,0173810503436422
0,0155844714044352
0,0136925577679087
0,0117254551928731
0,00970906475514647
0,00767391187605912
0,00565376525317276
0,00368410295726202
0,00180052669687712
3,72205996299465E-05
-0,00157446118738085
-0,00300721164053417
-0,00423874781672858
-0,00525252547227107
-0,0060381908405538
-0,00659178741845585
-0,00691574903690927
-0,00701871794647874
-0,00691522791832021
-0,00662528790892505
-0,00617389289579752
-0,00559047676280561
-0,00490830965695556
-0,00416383115194896
-0,00339590275650641
-0,00264496028087506
-0,00195204915580507
-0,00135773412611594
-0,000900888122384724
-0,000617382195652477
-0,00053871720498231
-0,000690656190183153
-0,0010919316214516
-0,0017531117720951
-0,0026757135395475
-0,0038516440402743
-0,00526303994219095
-0,0068825523864025
-0,00867409796990084
-0,0105940647974769
-0,0125929298173925
-0,0146172124897905
-0,016611663250345
-0,0185215657985566
-0,0202950218890452
-0,0218850871939995
-0,0232516370284083
-0,0243628604937515
-0,0251963091195482
-0,0257394588825489
-0,0259897795716769
-0,0259543396760973
-0,0256490052542713
-0,025097315006755
-0,0243291290980874
-0,0233791551722766
-0,0222854514020578
-0,0210879942550377
-0,0198273797023249
-0,0185437032573941
-0,0172756393003639
-0,0160597164498072
-0,0149297659153966
-0,0139165058225946
-0,0130472177967193
-0,0123454729908768
-0,0118308727634032
-0,0115187829416269
-0,0114200579696971
-0,0115407697100152
-0,0118819725131487
-0,0124395488951152
-0,0132041866715817
-0,0141615373355656
-0,0152925964245114
-0,0165743300755012
-0,0179805494605842
-0,0194830085883948
-0,0210526739409511
-0,0226610897779231
-0,0242817437172144
-0,0258913261174286
-0,0274707757261995
-0,0290060139755636
-0,0304882910008526
-0,0319140965364749
-0,0332846258430227
-0,0346048314105069
-0,0358821314296287
-0,0371248818596753
-0,0383407464909458
-0,0395351154755435
-0,0407097252272902
-0,0418616204030147
-0,0429825724262436
-0,0440590306245655
-0,045072634762785
-0,0460012658582113
-0,0468205605256592
-0,0475057677902021
-0,0480337910420933
-0,0483852354481961
-0,0485462753314057
-0,0485101678392238
-0,0482782679969451
-0,0478604436302698
-0,0472748427440227
-0,0465470256989674
-0,0457085341569695
-0,0447950223228562
-0,0438441180537999
-0,0428932074550855
-0,0419773436781376
-0,0411274677039582
-0,0403690968015394
-0,0397215880040948
-0,0391980239615322
-0,038805702829266
-0,0385471491452129
-0,0384215056406329
-0,0384261227975244
-0,0385581385397679
-0,0388158377942713
-0,0391996016443504
-0,0397122969976789
-0,040359016347858
-0,041146147773326
-0,042079830694711
-0,0431639254113704
-0,0443976863973755
-0,0457733739429628
-0,0472740608248933
-0,0488718872452452
-0,0505269878436562
-0,0521872613919752
-0,0537890815144753
-0,0552589622662729
-0,0565161038807324
-0,0574756602639075
-0,0580524994628845
-0,0581651786649953
-0,0577398316700804
-0,0567136720014162
-0,0550378486892031
-0,0526794511388207
-0,049622538541408
-0,0458681599428185
-0,0414334240565853
-0,0363497633852601
-0,0306606061486046
-0,0244187144004027
-0,0176834625551714
-0,0105183153780526
-0,00298871972997983
0,00483944535232463
0,0129008027467505
0,0211308328195907
0,0294657794776372
0,0378423133802195
0,0461972129689849
0,0544673467204223
0,0625902271535039
0,0705053578953695
0,0781565127548957
0,085494977141884
0,0924836574463196
0,0991018354201974
0,105350225652869
0,111255897998343
0,116876564948098
0,122303715181461
0,127664103939859
0,13311918902919
0,138862224190841
0,145112880854612
0,152109452740133
0,160098890530023
0,169325099578441
0,180016096091524
0,192370741701517
0,206545851042332
0,222644484005617
0,240706190838198
0,260699876184183
0,282519794707129
0,305984997461385
0,330842329643255
0,356772853672246
0,383401354409886
0,410308392391685
0,437044220686542
0,463143782213405
0,488141963515331
0,511588299608825
0,533060399212118
0,552175482453936
0,568599582450989
0,582054143643433
0,592319937994439
0,599238399694286
0,602710635952218
0,602694494560692
0,599200150460867
0,592284709906205
0,582046322566735
0,56861824363857
0,552163207533014
0,532868372392952
0,510940982112763
0,486604781549866
0,460097121954709
0,43166661617762
0,401571152910634
0,370076059014392
0,337452208349733
0,30397391099453
0,269916472137045
0,235553377491551
0,201153132985789
0,166975852175341
0,133269737704567
0,100267637437533
0,0681838681842117
0,0372114894912439
0,00752017863107203
-0,0207451901128841
-0,0474652175256284
-0,0725459209767362
-0,0959180222671349
-0,117535707219054
-0,137375015285034
-0,15543203122631
-0,171721044454365
-0,18627281611955
-0,19913305293681
-0,210361135279653
-0,220029091624123
-0,228220758936672
-0,235031025532244
-0,24056502479785
-0,244937138735753
-0,248269681143579
-0,250691160709349
-0,252334071371463
-0,253332215962026
-0,253817633023034
-0,253917258502452
-0,253749506652756
-0,253420991386231
-0,253023625753823
-0,252632330147201
-0,252303548896854
-0,252074722094109
-0,251964789115159
-0,251975718700816
-0,252094975171457
-0,252298749559735
-0,252555716065603
-0,252831025102441
-0,25309021949072
-0,253302762869001
-0,253444899491667
-0,253501619903258
-0,253467582839075
-0,253346933405827
-0,253152053150745
-0,252901370471408
-0,252616441646899
-0,252318576294122
-0,252025320708123
-0,251747124973529
-0,251484504043401
-0,251225960871816
-0,250946875137157
-0,250609480044711
-0,250163959421636
-0,249550605692004
-0,248702894182203
-0,247551257512467
-0,246027291186945
-0,244068091621289
-0,241620422316177
-0,238644422157308
-0,235116609281735
-0,231031990362308
-0,226405153031
-0,221270292459389
-0,215680195618321
-0,209704272929823
-0,203425782180029
-0,19693843043055
-0,190342564437514
-0,183741168520768
-0,177235882081166
-0,170923229407532
-0,164891225157273
-0,159216483517532
-0,153961921132786
-0,149175106632795
-0,144887275595549
-0,141113000828264
-0,137850484788768
-0,135082423858491
-0,132777382338486
-0,130891606304756
-0,129371202420861
-0,128154603125468
-0,127175236123114
-0,126364312206781
-0,125653640944735
-0,124978379167852
-0,124279613375557
-0,123506675455672
-0,122619092891604
-0,12158808123269
-0,12039749909075
-0,119044204790816
-0,117537778896813
-0,115899607342236
-0,114161354184339
-0,112362888948516
-0,110549768484637
-0,108770404420466
-0,107073071904812
-0,105502930985133
-0,104099236820499
-0,102892907969667
-0,101904603124325
-0,10114342673701
-0,100606344857057
-0,100278346777934
-0,100133339031583
-0,100135709474333
-0,100242454324631
-0,100405723446964
-0,100575611814231
-0,100703010024431
-0,100742325145063
-0,10065389515282
-0,100405944856725
-0,0999759665413834
-0,0993514519079189
-0,098529949862191
-0,0975184736518965
-0,0963323270545386
-0,0949934593095774
-0,0935284893184055
-0,0919665591099013
-0,0903371833924473
-0,0886682558857861
-0,0869843547717369
-0,0853054606693446
-0,0836461634921612
-0,0820153924300896
-0,0804166595399743
-0,0788487655085903
-0,0773068793821031
-0,0757838752942008
-0,0742717906618355
-0,072763263317545
-0,0712528100378894
-0,0697378253954735
-0,0682192063488034
-0,0667015423011
-0,065192849626441
-0,0637038707048991
-0,0622469969234058
-0,0608349097160885
-0,0594790606526489
-0,05818812865168
-0,0569665981070768
-0,0558135955590041
-0,0547221048627775
-0,0536786529339143
-0,052663522152819
-0,0516515041866182
-0,0506131664595963
-0,0495165602317631
-0,0483292614621319
-0,0470206053921885
-0,0455639554608142
-0,0439388385230082
-0,0421327821165246
-0,040142705711779
-0,0379757453330273
-0,0356494278678345
-0,03319115509857
-0,0306370049667732
-0,0280299053213731
-0,0254172800814316
-0,0228483060468962
-0,0203709478496644
-0,0180289565917651
-0,0158590233058929
-0,0138882710542396
-0,0121322498083221
-0,0105935675260981
-0,00926125125857879
-0,00811088635721677
-0,00710553304578012
-0,00619737105638948
-0,00532997794784897
-0,00444110803280864
-0,00346580902817129
-0,00233969442116004
-0,00100218215580636
0,000600485112101508
0,00251260682614157
0,00476692071915664
0,00738313609857775
0,0103671714432275
0,0137111199127738
0,0173939224250986
0,0213826865590683
0,0256345531793612
0,0300989836055345
0,0347203199184985
0,0394404607409759
0,0442014948135
0,0489481447082636
0,0536298920421337
0,058202682149602
0,0626301383056042
0,0668842510366164
0,0709455442815963
0,0748027547559166
0,0784520914386874
0,0818961666816793
0,0851427073779634
0,088203162948537
0,091091326132618
0,0938220729583992
0,0964103106961812
0,0988701985099168
0,101214676878064
0,103455310977088
0,105602422609486
0,107665457409465
0,109653511367408
0,111575925067833
0,11344284694723
0,11526566906988
0,117057250460126
0,118831863122458
0,120604823093064
0,122391800968638
0,12420784076032
0,126066149599875
0,127976750764825
0,129945115798947
0,131970905747787
0,134046954893262
0,136158621927313
0,138283613223647
0,140392351804889
0,142448925753039
0,144412604032381
0,146239859568082
0,147886792858299
0,149311808453122
0,150478365100767
0,151357601437109
0,151930635098613
0,152190345266717
0,152142476779846
0,151805946637554
0,15121228821942
0,150404230971512
0,14943347897978
0,148357815529576
0,14723771718908
0,146132705262269
0,145097690534782
0,144179576203291
0,143414372308425
0,142825043107904
0,142420258580065
0,142194156132126
0,142127143471283
0,142187694317556
0,142335011506817
0,142522363397692
0,142700845084213
0,14282328044887
0,142847967754687
0,142741981713483
0,142483778211541
0,142064901693358
0,141490665320725
0,140779754821351
0,13996279177067
0,139079973935848
0,138177982415919
0,137306401658266
0,136513934325202
0,13584470548534
0,135334938808889
0,135010252504382
0,134883767842946
0,134955153169749
0,135210647503828
0,135624027094539
0,136158402705572
0,136768671439593
0,137404400035817
0,138012890569237
0,138542176250887
0,13894371431723
0,139174582524045
0,139199041355502
0,13898939012442
0,138526115169138
0,137797395535427
0,136798089436597
0,135528367952066
0,133992186926813
0,132195791781649
0,13014643299991
0,127851434508348
0,125317707001541
0,122551738926686
0,119560035754232
0,116349919956425
0,112930556130336
0,10931403321519
0,105516322429293
0,101557937192201
0,0974641494231681
0,0932646626602345
0,0889927019051271
0,0846835469564821
0,0803726033117344
0,076093165339125
0,0718740736713539
0,0677374971642568
0,0636970755518422
0,0597566405686493
0,0559096916326413
0,0521397403688435
0,048421561631238
0,0447233041854789
0,0410093297787173
0,0372435731449684
0,0333931552378824
0,0294319439481236
0,0253437452157811
0,0211248247642222
0,0167855060094218
0,0123506597775814
0,00785899059542194
0,00336112493514942
-0,00108338988703954
-0,00540997067364895
-0,00955348020805618
-0,0134529604436947
-0,0170562413015796
-0,0203240507613124
-0,0232332852340648
-0,0257791618574076
-0,0279760612168132
-0,0298569727429103
-0,0314715668496891
-0,0328830281792034
-0,0341638837179354
-0,0353911396016022
-0,0366410944361427
-0,037984220520297
-0,0394804957770084
-0,0411755295645248
-0,0430977585918349
-0,0452569009903853
-0,0476437549448799
-0,0502313219400206
-0,0529771326142867
-0,0558265638156251
-0,0587168657901115
-0,0615815736803312
-0,0643549605301503
-0,0669762002033618
-0,0693929459662229
-0,0715640898129778
-0,0734615430146831
-0,0750709628514794
-0,0763914366089957
-0,0774342144461125
-0,0782206513265746
-0,0787795698417831
-0,0791442872040047
-0,0793495596172408
-0,079428686254177
-0,0794109855115222
-0,079319811892416
-0,0791712274998356
-0,0789733829907377
-0,0787266041656592
-0,0784241268562266
-0,0780533783352477
-0,0775976707572239
-0,0770381526486367
-0,0763558582819133
-0,075533700939007
-0,0745582726434798
-0,0734213373615307
-0,0721209340788465
-0,0706620377202027
-0,0690567570358616
-0,0673240772780531
-0,065489180335074
-0,0635823951484942
-0,0616378465726745
-0,0596918815583185
-0,0577813582418827
-0,0559418868277599
-0,0542061116453237
-0,0526021218163077
-0,0511520736658078
-0,0498711011759459
-0,0487665809790519
-0,0478378051760288
-0,0470760981860166
-0,0464653927844997
-0,0459832557101563
-0,0456023255816556
-0,0452920967480986
-0,0450209541109863
-0,0447583383172911
-0,0444769006700296
-0,0441544952656644
-0,0437758544663412
-0,0433338044677509
-0,0428299010374715
-0,0422744009971409
-0,041685530940417
-0,0410880680865794
-0,0405113050532699
-0,0399865259722122
-0,0395441706960671
-0,0392109018852655
-0,0390068122529192
-0,0389430129458674
-0,0390198273036848
-0,0392257771078502
-0,0395374929396855
-0,039920610187634
-0,0403316329591875
-0,0407206662066472
-0,0410348388475908
-0,0412221746589988
-0,0412356195392331
-0,0410369084095359
-0,0405999556719085
-0,0399134806554695
-0,0389826323918371
-0,0378294525162683
-0,0364921052482471
-0,0350229017885973
-0,0334852447702736
-0,0319497080376762
-0,0304895401237763
-0,0291759297340721
-0,0280733937286617
-0,0272356403191239
-0,0267022228798773
-0,0264962360024147
-0,0266232206132595
-0,0270713464412074
-0,0278128364088908
-0,0288064976233486
-0,0300011361798641
-0,031339565450386
-0,0327628755384589
-0,0342146184980532
-0,0356445804075182
-0,0370118555164804
-0,038287005062974
-0,0394531675229844
-0,040506080223339
-0,0414530658955482
-0,0423111235338576
-0,0431043333746229
-0,0438608350475044
-0,0446096621916529
-0,0453777146628448
-0,046187122024506
-0,047053202721253
-0,0479831575886915
-0,0489755609566956
-0,0500206350527381
-0,0511012212466165
-0,0521943016368606
-0,0532728819587637
-0,0543080253204124
-0,055270827158075
-0,0561341441200991
-0,0568739302713885
-0,0574700881763658
-0,0579068039534093
-0,0581723975142995
-0,0582587752082935
-0,0581606160017786
-0,057874449546893
-0,0573977922160975
-0,0567284946947721
-0,0558644235240659
-0,0548035525162231
-0,0535444834091124
-0,0520873547334266
-0,0504350404158432
-0,0485944917090372
-0,0465780432663236
-0,0444044907516225
-0,0420997555150383
-0,0396969815366427
-0,03723595880262
-0,0347618311405483
-0,03232311927729
-0,0299691642841733
-0,0277471650990839
-0,0256990391508244
-0,0238583711064146
-0,0222477268978438
-0,0208765962155806
-0,0197401867628748
-0,0188192305197524
-0,0180808811061737
-0,0174806890853737
-0,0169655469257105
-0,0164774061475118
-0,0159574943440227
-0,0153507066616154
-0,0146098204228917
-0,0136991859737206
-0,0125975819172321
-0,0112999861853051
-0,00981810080914918
-0,00817957049728002
-0,00642594432565427
-0,00460953642399766
-0,00278943596007407
-0,00102699049321348
0,000618866831594675
0,00209606109515198
0,00336322377337463
0,00439262888619189
0,00517197845458581
0,00570489698473379
0,00601010516770838
0,00611935584825182
0,00607432069609805
0,00592270472249828
0,00571393015905062
0,00549476573545681
0,00530527926129345
0,00517546068272687
0,0051228023519784
0,00515103863681458
0,00525014571207652
0,00539759333942321
0,005560733103646
0,0057001111125179
0,00577341570381559
0,00573971856959687
0,00556364498383177
0,00521911698176919
0,00469235124662648
0,00398385740842325
0,00310926669500429
0,00209891803688239
0,000996230500586954
-0,000145011100980723
-0,0012642443884592
-0,00229831069334184
-0,00318590466508235
-0,00387194997350688
-0,0043115687236584
-0,00447334791872589
-0,00434166435194888
-0,00391790450857439
-0,0032205020105944
-0,00228380483055205
-0,00115587087232013
0,000104633021142946
0,00143219250457453
0,00275859001105091
0,00401713480899601
0,00514668498905883
0,00609519236374912
0,00682254493900669
0,00730254016720069
0,00752389055616003
0,00749023589277542
0,00721920771975101
0,00674065647288797
0,00609420533325895
0,00532633384631902
0,00448721646827818
0,00362754558562038
0,0027955557060747
0,00203443731504391
0,00138028818829297
0,000860700567467537
0,000494028735133242
0,000289327654755855
0,000246903642053623
0,00035937626937086
0,000613119766903704
0,00098993400777453
0,00146879055793082
0,00202750787557561
0,00264423012619621
0,00329861386714218
0,00397266293140144
0,00465119071979514
0,00532192709852805
0,00597532077852826
0,00660411445225929
0,00720278688405042
0,00776696232559362
0,00829288280845628
0,00877702389610489
0,00921591109008533
0,00960616487681676
0,00994477044553648
0,0102295367765958
0,0104596823667304
0,0106364642265834
0,010763755192052
0,0108484734211269
0,0109007775145856
0,0109339603375418
0,0109640025697645
0,011008780772277
0,0110869610888833
0,0112166451333678
0,0114138656306719
0,0116910527786194
0,0120556055679515
0,0125087037143889
0,0130444848523602
0,0136496886597602
0,0143038362690016
0,0149799722233629
0,0156459507048224
0,0162662016035627
0,016803869201415
0,0172231805564909
0,0174918753912826
0,0175835168121703
0,0174795039756368
0,0171706240884532
0,0166580109500464
0,0159534185366578
0,0150787677987444
0,0140649791378633
0,0129501576536568
0,0117772489394031
0,0105913258322677
0,0094366976119563
0,00835405007638494
0,0073778261373789
0,00653404177001459
0,00583870221601843
0,00529694040374618
0,00490294676875685
0,00464070092952548
0,00448545550739245
0,00440586529972054
0,00436660548801782
0,00433128441854426
0,00426543276801244
0,00413934357419369
0,0039305473421593
0,00362573267652211
0,00322196374599454
0,00272709836255853
0,00215937062633638
0,00154616536942774
0,000922073232081988
0,000326370315584967
-0,00019988926824858
-0,000616949506775935
-0,000889365352163137
-0,000988724748936225
-0,00089587411351849
-0,000602479293338033
-0,000111804799775659
0,00056134608859466
0,00139152360932635
0,00234428598950267
0,00337848824437615
0,00444903006512398
0,00550985431454512
0,00651697112583119
0,00743128404561658
0,00822101387718384
0,00886355113075008
0,00934661627354607
0,00966866414435786
0,00983853009863437
0,00987437551034466
0,00980204410278283
0,00965298372664182
0,00946191713420616
0,00926445773323979
0,00909486149533769
0,00898408489033093
0,00895828315188004
0,00903783688519831
0,00923694240651936
0,00956374729329633
0,0100209624294389
0,0106068400126416
0,0113163773840216
0,0121425917211409
0,013077711827003
0,0141141500264321
0,0152451477053387
0,0164650290542334
0,0177690448740147
0,019152837043027
0,020611599420833
0,0221390479935392
0,0237263380869894
0,0253610768851811
0,0270265741008806
0,0287014528532111
0,0303597085581191
0,0319712592483027
0,0335029805600321
0,0349201676567401
0,0361883197199209
0,0372751050797472
0,0381523405133544
0,0387978093614739
0,0391967511081954
0,0393428794169468
0,0392388242688527
0,0388959432860718
0,038333502938958
0,037577286911704
0,0366577410084458
0,0356078066500998
0,0344606240706194
0,0332472989203964
0,0319949208131881
0,0307249997911426
0,0294524487849671
0,028185190415198
0,0269244095530635
0,0256654142777462
0,0243990127155337
0,023113266884612
0,0217954514156874
0,0204340279060467
0,0190204462589633
0,017550602475859
0,0160258162452352
0,0144532380275265
0,012845649784115
0,0112206808971555
0,00959951582801303
0,00800521756578674
0,00646082659186055
0,00498741571065526
0,00360228490721746
0,00231746717390484
0,00113868734071929
6,48741662374353E-05
-0,000911724830552948
-0,00180483136842317
-0,0026328871312629
-0,00341737585189014
-0,00418086417498764
-0,00494493426626312
-0,00572819124116796
-0,00654452246736468
-0,0074017643129225
-0,00830089701039681
-0,00923584314830777
-0,0101938938685162
-0,0111567336147822
-0,0121019837354121
-0,0130051416352825
-0,013841759002062
-0,0145896825042086
-0,0152311747185231
-0,0157547421233145
-0,0161565198070128
-0,0164410970180576
-0,0166217108837179
-0,0167197839881063
-0,0167638311363694
-0,0167878077159995
-0,0168290130439173
-0,0169256940176175
-0,0171145151211353
-0,0174280691183326
-0,0178925984019327
-0,0185260806055777
-0,019336805354463
-0,0203225341819653
-0,0214702954198789
-0,0227568233623445
-0,0241496092094093
-0,0256084931081462
-0,0270876944555223
-0,0285381534034503
-0,0299100414661291
-0,0311552937502901
-0,0322300194686699
-0,0330966602152741
-0,0337257856104017
-0,0340974416262134
-0,0342019961425045
-0,0340404570144454
-0,0336242681030116
-0,0329746165592184
-0,0321213086637951
-0,0311012906088822
-0,0299569041152809
-0,0287339744419522
-0,0274798303409588
-0,0262413522711747
-0,0250631374751221
-0,0239858592023292
-0,0230448833768549
-0,0222691903321229
-0,0216806327074731
-0,0212935440286667
-0,0211146964503404
-0,0211435911719568
-0,0213730514793539
-0,0217900765193267
-0,0223769040198648
-0,0231122224104151
-0,0239724674133605
-0,0249331353448427
-0,0259700453545733
-0,0270604857848254
-0,0281841859241191
-0,0293240636668998
-0,030466711835506
-0,0316026008367554
-0,0327259923296655
-0,033834576843906
-0,0349288667627623
-0,0360113935348816
-0,0370857730843235
-0,0381557148312702
-0,0392240563047967
-0,0402919061331743
-0,0413579726333678
-0,0424181432494434
-0,0434653621513178
-0,0444898304220282
-0,0454795269797018
-0,0464210206695166
-0,0473005170924306
-0,0481050600652907
-0,0488237894173656
-0,049449146051475
-0,0499779132511195
-0,0504119907844189
-0,0507588153805129
-0,0510313665943607
-0,0512477291845044
-0,0514302193574049
-0,0516041195694611
-0,0517961017280974
-0,0520324483588988
-0,0523372027157371
-0,0527303896463099
-0,053226447941799
-0,0538330015890182
-0,0545500726407063
-0,055369804246612
-0,0562767216220453
-0,0572485149413939
-0,0582572852691765
-0,05927115663784
-0,0602561277766672
-0,0611780185987927
-0,0620043610982973
-0,0627060922851978
-0,0632589273873794
-0,0636443226488004
-0,0638499755453329
-0,0638698521806266
-0,0637037727782289
-0,0633566223825255
-0,0628372815030011
-0,0621573878144404
-0,0613300437293196
-0,0603685757168434
-0,0592854310984611
-0,0580912694953541
-0,0567942729279442
-0,055399665181428
-0,0539094019284443
-0,0523219723229325
-0,0506322434327334
-0,0488312827174047
-0,0469061108452538
-0,0448393658348412
-0,0426088964202572
-0,0401873430002552
-0,0375418028940873
-0,0346337069965888
-0,0314190517841834
-0,0278491295268563
-0,0238718777870829
-0,0194339262537491
-0,0144833565822926
-0,00897311350920919
-0,00286491970349491
0,00386653913609331
0,0112294691850912
0,0192112318503063
0,0277754151057562
0,036860109586678
0,0463777455766891
0,0562167677509587
0,0662453095104469
0,0763168845839912
0,0862779501858985
0,0959770260189216
0,105274891103004
0,114055240560921
0,122235081085287
0,129774088650173
0,136682153621399
0,143024400925687
0,148923095678782
0,154556021792393
0,160151141903297
0,165977596587097
0,172333361261257
0,179530130690457
0,187876223754976
0,197658476767575
0,209124206893632
0,222464367341846
0,237798977597775
0,255165795779317
0,274513012977859
0,295696503720013
0,318481879649625
0,342551285894622
0,36751457382791
0,392924202576746
0,418292985422521
0,443113623475858
0,466878870154586
0,489101152721835
0,509330541764866
0,527170100066517
0,542287847038263
0,554424827265522
0,5633990517923
0,569105366887339
0,571511575522755
0,570651371759525
0,566614831086941
0,559537318496119
0,549587724126683
0,536956912926954
0,521847184915382
0,504463396393188
0,485006204103185
0,463667680947019
0,440629331910957
0,416062330486954
0,390129615614656
0,362989350441459
0,33479915641939
0,305720504167044
0,275922666045885
0,245585709735325
0,214902128457786
0,184076849944458
0,153325528843309
0,122871191393655
0,0929394527884997
0,0637526543535528
0,0355233598456743
0,00844770159669152
-0,01730092463548
-0,0415773510946555
-0,0642689217699399
-0,0852982750935055
-0,104624452632547
-0,122242290069577
-0,138180173828559
-0,152496361280058
-0,16527415586978
-0,176616294370242
-0,186638938009669
-0,195465661597988
-0,203221806762536
-0,210029511300712
-0,216003652546859
-0,221248855966222
-0,225857628834291
-0,229909590584452
-0,233471693158549
-0,23659926202598
-0,239337645294536
-0,241724236419136
-0,243790635338632
-0,245564731605986
-0,247072527824169
-0,248339568006348
-0,249391888293833
-0,250256461553813
-0,25096115793593
-0,251534286381343
-0,252003814313784
-0,252396382500509
-0,252736238854335
-0,253044209481019
-0,253336809333749
-0,253625571056691
-0,253916642007643
-0,254210669349483
-0,254502964566766
-0,25478391442982
-0,255039587327257
-0,255252473191481
-0,255402292289155
-0,255466812497646
-0,255422625111237
-0,25524584401117
-0,254912710106248
-0,254400100156942
-0,253685954329805
-0,252749648414134
-0,251572343275402
-0,250137345143198
-0,24843050573849
-0,246440681559496
-0,244160258025307
-0,24158572814477
-0,238718298754856
-0,235564482024434
-0,232136617708928
-0,228453264050339
-0,22453939343292
-0,220426333551121
-0,216151405953221
-0,211757230893582
-0,20729068934071
-0,202801558185143
-0,198340861252361
-0,193959004501159
-0,189703786610253
-0,1856183939574
-0,181739500060703
-0,17809559251306
-0,174705644636793
-0,171578234332708
-0,168711189546765
-0,166091809613318
-0,163697676321361
-0,161498030184457
-0,159455648735889
-0,157529127493829
-0,155675433281552
-0,15385257633002
-0,15202223401857
-0,150152156627967
-0,148218194709711
-0,146205808390129
-0,144110950080744
-0,141940251763593
-0,13971049371333
-0,137447380058315
-0,13518369462038
-0,132956954435232
-0,13080671503334
-0,128771708044589
-0,126887005874724
-0,125181408748999
-0,123675236069645
-0,12237867746624
-0,121290820932058
-0,120399428602926
-0,119681478423136
-0,119104435935493
-0,118628168706459
-0,118207370277305
-0,117794324470221
-0,117341817031748
-0,116805991814904
-0,116148953685085
-0,115340939736521
-0,11436191270393
-0,113202473237493
-0,111864037690915
-0,110358281505534
-0,10870590111271
-0,106934795609734
-0,105077809713424
-0,103170208760114
-0,101247072770795
-0,0993407988040037
-0,0974788890538249
-0,0956821775075009
-0,0939636125519544
-0,0923276695400683
-0,0907704193772865
-0,0892802303439564
-0,0878390342570321
-0,0864240480641506
-0,0850098108647622
-0,0835703762835632
-0,082081492262019
-0,0805226050183162
-0,0788785404673682
-0,077140743324738
-0,0753079892105075
-0,0733865255727382
-0,0713896400980306
-0,0693366973134805
-0,0672517222898436
-0,0651616420676911
-0,0630943185329462
-0,0610765194532115
-0,0591319765900104
-0,0572796712194847
-0,0555324688784183
-0,053896198164094
-0,0523692350130049
-0,0509426165148211
-0,0496006696876993
-0,0483221034845494
-0,0470814792388365
-0,0458509480933816
-0,0446021255318549
-0,0433079642245409
-0,0419444875940725
-0,0404922577146634
-0,0389374715528968
-0,0372726077013172
-0,035496579603981
-0,0336143884058016
-0,0316363062456484
-0,0295766563043989
-0,0274522865243797
-0,0252808573442121
-0,0230790781547661
-0,0208610313519197
-0,0186367163399085
-0,0164109290701778
-0,0141825667937816
-0,0119444146528841
-0,00968343296373735
-0,00738152459092683
-0,00501672370928776
-0,00256471367760682
-5,55386311660004E-07
0,002699509394451
0,00555632106340401
0,00858626736666272
0,0118000696493089
0,0152019824705048
0,0187894646007724
0,0225533403753924
0,0264784299056448
0,030544588217412
0,0347280603549976
0,0390030347236581
0,0433432626186539
0,0477236092654989
0,0521214109289984
0,0565175328820998
0,0608970523362432
0,0652495260927041
0,0695688413182844
0,0738526859061348
0,0781017087374258
0,0823184667056539
0,0865062721136655
0,0906680595213828
0,0948053848865307
0,0989176526524027
0,103001640081965
0,107051355371049
0,111058230190174
0,115011612022108
0,118899490531614
0,122709368438381
0,126429173369369
0,130048104418094
0,133557315875758
0,136950359968043
0,140223338379914
0,143374745971311
0,146405025828086
0,149315888831998
0,152109479578565
0,154787490554426
0,157350335652312
0,159796491130749
0,162122097041557
0,164320886208564
0,16638447355025
0,168302999228822
0,170066078825156
0,171663976651542
0,173088888443395
0,174336200346111
0,175405584768877
0,176301801377312
0,177035093060523
0,177621100420279
0,178080261313314
0,17843671029642
0,178716741932391
0,178946947048828
0,179152167717715
0,179353441148069
0,179566112164997
0,17979828714605
0,180049779403631
0,180311658754462
0,18056646950134
0,180789125506101
0,180948433373548
0,181009140217537
0,180934356021276
0,180688166538822
0,180238234199113
0,179558183380582
0,178629582928151
0,177443371509136
0,176000617485692
0,174312560332938
0,172399940341635
0,170291682084857
0,168023049702408
0,16563343382894
0,16316395731681
0,160655097480279
0,158144515649697
0,155665261148353
0,153244478759007
0,150902699889002
0,148653742546443
0,146505188964975
0,144459357391821
0,142514640900866
0,140667055001418
0,138911819984284
0,137244804695471
0,135663675517158
0,134168626075817
0,132762606576373
0,131451022605844
0,130240927070419
0,129139780662084
0,128153901155508
0,127286755805524
0,126537271043066
0,12589833766466
0,125355677387014
0,12488720896584
0,124463011453611
0,124045932084562
0,123592831085966
0,123056400188662
0,122387440587982
0,121537444007783
0,120461291028322
0,119119866527215
0,117482394262806
0,115528311169763
0,113248535346359
0,110646027237933
0,107735597358038
0,104542971608487
0,101103182041751
0,0974584020934867
0,0936553866969442
0,0897427059382731
0,085767973771419
0,0817752699076069
0,0778029337480135
0,0738818759370219
0,0700345087343131
0,0662743447780257
0,0626062593717284
0,0590273587709098
0,0555283504934564
0,0520952752020886
0,048711436143119
0,0453593531979123
0,0420225747755796
0,0386872011654735
0,0353430055187503
0,0319840801555902
0,0286089825861355
0,0252204031571371
0,0218244203597499
0,01842944658948
0,0150449933678547
0,0116803984833126
0,00834365715724875
0,00504048542724077
0,00177371793849316
-0,00145689323235286
-0,00465445377721554
-0,00782429533526546
-0,0109729975883462
-0,0141071613745627
-0,017232056924133
-0,0203502866460107
-0,0234606041436625
-0,0265570200678184
-0,0296283020359831
-0,0326579422304213
-0,0356246254819855
-0,0385031862552514
-0,0412659989761823
-0,0438847064350176
-0,0463321590986908
-0,0485844168251448
-0,0506226555792134
-0,0524348260020757
-0,0540169277341609
-0,0553737916957272
-0,0565192996643214
-0,0574760132900104
-0,0582742295366606
-0,0589505227558287
-0,059545871637646
-0,0601034991904389
-0,0606665733787459
-0,061275923813809
-0,0619679255621149
-0,0627726854683537
-0,0637126409074535
-0,0648016480062217
-0,0660445989530972
-0,0674375692046022
-0,0689684583680744
-0,0706180561223987
-0,0723614391346753
-0,0741695881954526
-0,0760111076118439
-0,0778539312889257
-0,0796669111211535
-0,081421201797087
-0,083091379845415
-0,0846562613198071
-0,0860994093880647
-0,0874093478630457
-0,0885795172250265
-0,0896080244102757
-0,0904972455049074
-0,0912533412981412
-0,0918857397788763
-0,0924066282283032
-0,0928304821708252
-0,0931736410900174
-0,0934539236490176
-0,0936902603174025
-0,0939023106353424
-0,0941100272996573
-0,0943331306539763
-0,0945904651541846
-0,0948992234168679
-0,0952740422546328
-0,0957259968554912
-0,0962615416847192
-0,0968814672953702
-0,0975799585834922
-0,0983438498402404
-0,0991521735552581
-0,0999760922240338
-0,100779285160892
-0,101518836183347
-0,102146634549513
-0,102611262991616
-0,10286030612434
-0,102842973227138
-0,102512894927332
-0,101830926976493
-0,10076777889471
-0,0993062828964138
-0,097443130233579
-0,0951899278808539
-0,0925734671200231
-0,0896351446606364
-0,0864295331321196
-0,0830221569585739
-0,0794865872756713
-0,0759010210533483
-0,0723445506450878
-0,0688933570693246
-0,0656170708231536
-0,0625755366689388
-0,0598161937515388
-0,0573722411346807
-0,0552617043201222
-0,053487454566624
-0,0520381646989066
-0,050890117877847
-0,0500097247478439
-0,0493565542751406
-0,0488866484356532
-0,0485558733983883
-0,0483230613662915
-0,0481527175134585
-0,0480171038334125
-0,0478975629864743
-0,0477850062948946
-0,0476795558780244
-0,0475893962770644
-0,047528950682076
-0,0475165463927723
-0,0475717698101351
-0,0477127305363957
-0,0479534560442805
-0,0483016231711581
-0,0487568021368131
-0,0493093457975626
-0,0499400051618451
-0,0506202961959701
-0,0513135870901863
-0,0519768237018966
-0,0525627675730425
-0,0530225885494039
-0,0533086344655443
-0,0533771942891791
-0,0531910781573767
-0,0527218564490365
-0,0519516282791273
-0,0508742247599587
-0,049495791076216
-0,047834730770167
-0,0459210329740049
-0,0437950362506118
-0,0415057096296644
-0,0391085513242782
-0,036663218144853
-0,0342310041573786
-0,0318722863502962
-0,0296440491397475
-0,0275975896617915
-0,0257764931961888
-0,0242149538127136
-0,022936500201316
-0,0219531711992837
-0,0212651698982028
-0,0208610094517659
-0,0207181476177505
-0,0208040904256149
-0,0210779282010977
-0,0214922494968983
-0,0219953607864562
-0,0225337227728464
-0,0230544989178317
-0,023508099548643
-0,0238505970880694
-0,0240458858893866
-0,0240674649967609
-0,0238997346615829
-0,0235387178086763
-0,0229921454878319
-0,0222788795286131
-0,0214276843739807
-0,0204754010044294
-0,01946461624956
-0,0184409575066375
-0,017450173044582
-0,0165351789212141
-0,0157332629255275
-0,0150736325092614
-0,0145754768823835
-0,0142466839330324
-0,0140833118856295
-0,0140698662400182
-0,0141803777862791
-0,0143802212338832
-0,0146285603761476
-0,0148812587285702
-0,0150940579870181
-0,015225803413494
-0,0152414874640172
-0,0151148916222494
-0,0148306312273787
-0,0143854476594266
-0,0137886439320614
-0,0130616200344016
-0,0122365289759643
-0,0113541386646701
-0,0104610438818845
-0,00960642206777953
-0,0088385627080261
-0,00820141976239068
-0,00773143811730303
-0,00745488799752835
-0,00738590652559246
-0,00752539552019826
-0,00786086254974313
-0,00836722276482359
-0,00900850714577665
-0,00974035399470871
-0,0105131000932868
-0,0112752407119845
-0,0119769975396832
-0,0125737232475117
-0,0130288820703816
-0,0133163770399229
-0,0134220442721156
-0,0133441994976035
-0,0130931968611753
-0,0126900391725461
-0,0121641558641906
-0,0115505336381518
-0,0108864392894382
-0,0102080097115916
-0,00954699725254119
-0,00892794781898112
-0,00836605486524678
-0,00786587700404086
-0,00742103476223918
-0,00701491876762489
-0,00662235436631115
-0,00621208371581069
-0,00574985321884216
-0,00520183825807149
-0,00453810388449762
-0,00373579266974212
-0,00278175060400775
-0,00167434741810226
-0,000424315494823572
0,000945484004700714
0,00240136528430724
0,00390109471115024
0,00539695486594744
0,00683933794933524
0,00818056024470858
0,00937856589935272
0,0104001943510245
0,0112237211894463
0,0118404443058832
0,0122551705741928
0,0124855557668037
0,0125603532223652
0,0125167256764287
0,012396860531718
0,0122441937607785
0,0120995853357859
0,0119977958602056
0,0119645889458934
0,0120147287806714
0,0121510619580697
0,0123647740878519
0,0126368037708356
0,0129402889839257
0,0132438235791365
0,0135152234807893
0,013725450558832
0,0138523220539613
0,0138836470107609
0,013819477505054
0,0136732377529123
0,013471591906203
0,0132530229453344
0,0130652106586394
0,0129614060011379
0,0129960923133872
0,0132202925469098
0,0136769195244109
0,0143965697769431
0,0153941301167585
0,0166665023703773
0,0181916610264085
0,0199291487431905
0,0218219951845702
0,0237999258904218
0,025783620066773
0,0276896886709073
0,0294359844657035
0,0309468289117132
0,032157749088065
0,0330193603852047
0,0335001037181764
0,0335876429264703
0,0332888404640994
0,0326283475653329
0,0316459586418581
0,0303929789911318
0,0289279315773789
0,02731197633774
0,0256044303920393
0,0238587588841267
0,0221193559692921
0,0204193585519158
0,018779638840263
0,0172090143286482
0,0157056050435525
0,0142591673188907
0,0128541497629568
0,0114731574995169
0,0101004801615798
0,00872533976312726
0,00734454592790964
0,00596430491518204
0,00460100974547125
0,00328093415892721
0,00203885440845703
0,000915721017107513
-4,4411026468737E-05
-0,000797918157705745
-0,00130529267807335
-0,00153464465366144
-0,0014647058872184
-0,0010870639989035
-0,000407421608470896
0,000554239930595948
0,00176461834658696
0,00317909985697773
0,00474466071334587
0,00640342632559802
0,00809659879813362
0,00976843418049835
0,0113699484066714
0,0128620556259812
0,0142178920279703
0,0154241476370565
0,016481311954094
0,0174028292892929
0,0182132486846628
0,0189455338898528
0,0196377644012521
0,0203295039409021
0,0210581344795757
0,0218554508264029
0,0227447835304193
0,0237388693840472
0,0248386235244678
0,0260328909433744
0,0272991746510715
0,0286052595711729
0,0299115819208956
0,0311741387064315
0,0323476953114653
0,033389033264382
0,0342599859462471
0,0349300359275185
0,0353782910274331
