0,000799468269989391
0,000364223887956767
0,000428442285825658
0,00097976136077988
0,00198226028920233
0,00337732222770741
0,00508597396965097
0,00701261325752653
0,00904991941676043
0,0110846412965266
0,0130038777237339
0,0147014174356915
0,0160836927513534
0,0170749257441094
0,01762110578642
0,0176925280076691
0,0172847356394752
0,0164178354203756
0,0151342830027037
0,0134953533066255
0,0115766085546543
0,00946274575094543
0,00724223981656666
0,00500219586599329
0,0028237850891615
0,000778567713985643
-0,00107408923884225
-0,00268840266902464
-0,00403239122548946
-0,00508704754217207
-0,00584468370176194
-0,00630673463597109
-0,00648133836021961
-0,00638101169435252
-0,00602070598953477
-0,00541646338300114
-0,00458480719533328
-0,0035428995057712
-0,00230939536690767
-0,000905827533597332
0,000641721725565547
0,00230095568076298
0,00403201679530789
0,00578675312810508
0,00750883947653787
0,00913491296766007
0,0105967778720977
0,0118246169205244
0,0127510279194932
0,0133155970587823
0,0134696354185649
0,0131806523367834
0,0124361253908978
0,0112461549801444
0,00964466129292325
0,00768888812266367
0,00545711322421712
0,00304461734742577
0,000558120316104061
-0,00189096168066847
-0,00419396189925912
-0,00625255105207507
-0,00798586689270289
-0,00933659578359915
-0,0102754793366294
-0,0108038297133125
-0,0109537872978884
-0,0107862321658794
-0,0103864512617692
-0,00985785016420395
-0,00931416533012659
-0,00887076486020389
-0,00863571087749454
-0,00870128642120887
-0,00913666079888283
-0,00998228136349684
-0,0112464434002018
-0,0129043145111327
-0,0148994904040829
-0,0171479523844615
-0,0195441009608831
-0,0219683717168305
-0,0242958135691165
-0,0264049365295165
-0,0281861222983744
-0,0295489372905426
-0,0304277896355733
-0,0307855198940833
-0,0306146963028818
-0,02993658304209
-0,0287979467110619
-0,0272660446009524
-0,0254222829481877
-0,0233551319197722
-0,0211529286409884
-0,0188971872171922
-0,0166569676646624
-0,0144847411752234
-0,0124140385826613
-0,0104589968302376
-0,00861574087281297
-0,00686537223025353
-0,00517819543641064
-0,00351871227880118
-0,00185085954199198
-0,000142962913525961
0,00162807310937445
0,00347372769260075
0,00539224026763578
0,00736851438270883
0,00937550604138871
0,0113769058347093
0,013330798317262
0,0151938901603497
0,0169258489747266
0,018493291521892
0,0198730029200398
0,0210540525566037
0,0220385889482492
0,0228412328829932
0,0234871320966262
0,0240088772441905
0,0244425945746308
0,0248236142657443
0,0251821567872874
0,0255394788774566
0,0259048760437934
0,0262738545369958
0,0266276709342435
0,0269343032125571
0,0271507767858854
0,0272266362452212
0,0271082415493439
0,0267434870794598
0,0260865011900317
0,0251018865367116
0,0237681072097826
0,0220797129436466
0,0200482050250536
0,0177014816251713
0,0150819389040973
0,0122434346488946
0,0092474303838536
0,0061587049878056
0,0030410700775186
-4,64889707634979E-05
-0,00305287205310544
-0,00593683692974038
-0,00866771636001227
-0,0112248461386031
-0,0135958101088214
-0,0157737380880242
-0,0177539993144647
-0,019530706313197
-0,0210934740290858
-0,0224248628863036
-0,023498872771282
-0,0242807530588901
-0,0247282609732766
-0,0247943494140039
-0,0244311104599455
-0,0235946574560639
-0,0222505114083636
-0,0203789787227427
-0,0179799759985364
-0,0150767781877305
-0,011718238600618
-0,0079791476631783
-0,00395855219191015
0,000223965357321214
0,00443386367449763
0,00852871720864839
0,0123662829301463
0,0158129473177432
0,0187518874088671
0,0210902838526749
0,0227649872581673
0,0237461573058028
0,0240385573944536
0,0236803820944543
0,0227397032488461
0,0213088245517016
0,0194970152888923
0,0174222349393231
0,0152025482492313
0,0129479565672377
0,0107533326732945
0,00869304583791103
0,00681771001904428
0,00515329441530733
0,00370261944516383
0,00244904207664004
0,00136193240761447
0,000403377027405782
-0,000464570411811062
-0,00127282392113948
-0,00203910306462362
-0,00276331046809871
-0,00342494411878407
-0,00398285088906242
-0,0043774084198547
-0,00453499239958849
-0,00437436635238474
-0,0038144414369233
-0,00278271208387153
-0,00122359289369899
0,000894128932800652
0,00357145153449944
0,0067755263917431
0,0104386540924003
0,0144601034355045
0,0187107065383564
0,0230399401721299
0,0272849829971692
0,0312810592116699
0,0348722573884167
0,0379219599611029
0,0403220390339322
0,0420000665943064
0,0429239442216161
0,0431035657971896
0,0425893688522932
0,0414678854477765
0,0398546501322737
0,0378850396049694
0,0357037877626186
0,0334540265669921
0,0312667386607896
0,0292514690289697
0,0274890336999562
0,0260267929531411
0,0248768393197742
0,0240172053384645
0,0233959433196348
0,0229376905901022
0,0225521288360941
0,0221435922920757
0,0216209892639476
0,0209071820245238
0,0199470226932079
0,0187133623966561
0,0172105273114657
0,0154749729053885
0,0135730682358619
0,0115962051166748
0,00965365191808527
0,00786375989558147
0,00634426569201643
0,00520250602145593
0,00452636388071791
0,00437670020514557
0,00478189674646477
0,00573495638273189
0,00719339161271296
0,00908189908878038
0,0112975874671331
0,0137173169714596
0,0162065392719632
0,0186289094690724
0,0208558874000179
0,0227755570554789
0,0242999688337992
0,0253704424349557
0,0259604463773944
0,0260758777206287
0,0257527845129923
0,0250527849941254
0,024056623783385
0,0228564506865609
0,0215475006124215
0,0202198863916513
0,0189511882239022
0,0178004375945779
0,0168039583366736
0,0159733556906977
0,0152957513635988
0,0147361659325563
0,0142417666652199
0,0137475446933028
0,0131828733725411
0,0124783385406712
0,0115722255030568
0,0104160962972077
0,00897898855871447
0,0072499043917255
0,00523842097127611
0,00297342900792033
0,000500174828716923
-0,0021240684352418
-0,00483525828108259
-0,00756825263643191
-0,0102623504110756
-0,0128661857894961
-0,0153415306417421
-0,017665670279836
-0,0198321573342475
-0,0218499036189244
-0,0237407261662345
-0,0255356069490409
-0,0272700433556628
-0,028978948000823
-0,03069159505232
-0,0324271030240009
-0,0341908921991457
-0,0359724637009736
-0,0377447253786335
-0,0394649484367274
-0,0410772908997591
-0,042516682836455
-0,0437137462518486
-0,0446003302499124
-0,0451151873163027
-0,0452093038074242
-0,0448504275577593
-0,044026404913683
-0,0427470419566382
-0,0410443308986415
-0,0389710214339509
-0,0365976560815563
-0,0340083162153628
-0,0312954307776717
-0,0285540738447584
-0,0258762142956417
-0,0233453781857355
-0,0210321427616829
-0,0189908044206693
-0,0172574583055395
-0,0158496038469829
-0,0147672590866044
-0,0139954382928521
-0,013507732979036
-0,0132706454572788
-0,013248263937863
-0,0134068436721066
-0,0137188714775067
-0,014166239868889
-0,0147422376057302
-0,0154521689188638
-0,0163125351519675
-0,0173488399676319
-0,0185922021138936
-0,0200750679691158
-0,0218264007692874
-0,023866777640222
-0,0262038447287362
-0,0288285630863674
-0,0317126245957201
-0,0348073320437108
-0,038044126769657
-0,0413368195354385
-0,0445854450385403
-0,0476815281662817
-0,0505144308177799
-0,0529783511925459
-0,0549794804999963
-0,0564427906414575
-0,0573179334647304
-0,0575837778660967
-0,0572511926256356
-0,0563637951141535
-0,0549965212791392
-0,053252021299074
-0,0512550375170269
-0,0491450659635162
-0,0470677295594455
-0,0451653907346726
-0,0435675962773927
-0,0423819727196373
-0,0416861741020371
-0,0415214261861292
-0,0418881155773153
-0,0427437449779179
-0,0440034253577152
-0,0455429123721124
-0,0472040289749694
-0,0488021602654525
-0,0501353709097726
-0,0509945894601262
-0,0511742349629608
-0,0504826343277349
-0,0487515959710849
-0,0458445652446255
-0,0416628859987805
-0,0361498235656902
-0,0292921583799958
-0,0211193257033056
-0,0117002438132904
-0,00113812887577209
0,0104362715175826
0,0228724919829618
0,0360086127464079
0,0496793557275516
0,063723421683571
0,0779895457245273
0,0923408561850046
0,106657260605827
0,120835742530882
0,134788622324841
0,148440001814012
0,161720763735003
0,174562621212896
0,186891799903766
0,198622978744326
0,209654110170359
0,21986268647326
0,229103918492775
0,237211152534515
0,243998680776333
0,24926691165874
0,252809673688514
0,254423243412329
0,253916530386962
0,251121731821034
0,245904697760032
0,238174231587973
0,22788959353536
0,215065575825831
0,199774671534764
0,182146055486474
0,162361321185654
0,140647156763296
0,117265377410056
0,0925009436968798
0,0666487674326521
0,0400002246390314
0,0128303477300506
-0,0146133503783015
-0,0421195599713089
-0,0695186670152652
-0,0966845756459751
-0,123532646609303
-0,150013828315964
-0,176105352823464
-0,201798647515523
-0,227085352966254
-0,251942519149733
-0,27631816025296
-0,300118372403064
-0,323197154149577
-0,345349918531564
-0,366311456519939
-0,385758819040857
-0,403319248234835
-0,418582931356148
-0,431119998118181
-0,44050085986296
-0,446318720568531
-0,44821289577331
-0,445891471350159
-0,439151828792938
-0,427897659382426
-0,412151281093243
-0,392060347283632
-0,367898376800595
-0,340058918023732
-0,309043558248218
-0,275444377091903
-0,239921791431683
-0,203179025610789
-0,165934644653182
-0,128894696277361
-0,0927260128497214
-0,0580321277316057
-0,025333069717322
0,00494997085740506
0,0325044400418355
0,057130382182283
0,0787386386981738
0,0973437117810088
0,113052034040724
0,12604663504612
0,136569367037939
0,144901935553463
0,151346973879191
0,156210307579904
0,159785387633264
0,162340643980171
0,164110245530547
0,165288469941343
0,166027609233989
0,166439086503176
0,166597252444804
0,166545181637476
0,166301705558328
0,165868904558359
0,165239331117286
0,164402343154753
0,163349076276863
0,162075761976224
0,160585287849631
0,158887078820716
0,156995539608906
0,154927425495719
0,152698591729318
0,150320606956067
0,147797702566254
0,145124471830622
0,142284637873843
0,13925108839845
0,13598723992358
0,132449657990112
0,128591734593256
0,124368120716558
0,119739538496825
0,114677559443792
0,109168934208765
0,103219094257041
0,0968545121530582
0,0901236982422573
0,0830967188706507
0,0758632355592115
0,0685291763233067
0,0612122508753382
0,0540366034320259
0,0471269547581132
0,0406026156042561
0,0345717557912723
0,0291262879713768
0,0243376756678569
0,0202539061784004
0,0168977860916334
0,0142666268714222
0,0123332967043315
0,0110485287178166
0,0103443002348615
0,0101380373330791
0,0103373568719009
0,0108450362303177
0,0115638998206223
0,0124013302891333
0,0132731492832907
0,0141066648395838
0,0148427461052157
0,0154368569324031
0,0158590531953867
0,0160930197223293
0,0161342868691448
0,0159878198165287
0,015665212081359
0,0151817358864719
0,0145535043584841
0,0137949837382766
0,0129170588922196
0,0119258047785271
0,0108220537179061
0,00960177798904872
0,0082572348112276
0,00677875195705904
0,00515697280081459
0,00338533473762961
0,00146252884296461
-0,000605315842311609
-0,00280296180067367
-0,00510510466196215
-0,00747626623026775
-0,00987160465930133
-0,0122386256359257
-0,0145196953054518
-0,0166551787740663
-0,0185869645870295
-0,0202620918493341
-0,0216361772939324
-0,0226763471548736
-0,0233634132922951
-0,0236930922483296
-0,0236761449422679
-0,0233374067555927
-0,0227137745239015
-0,02185130955641
-0,0208016954757309
-0,0196183487419368
-0,0183525122810609
-0,0170496652541185
-0,0157465540408167
-0,0144690933195713
-0,0132313067772835
-0,0120353818949989
-0,0108728114397612
-0,00972649546421758
-0,00857359129127233
-0,0073888334152934
-0,00614800675403436
-0,00483124878465384
-0,00342587932336379
-0,00192850841011131
-0,000346247495475288
0,00130306090783155
0,00299158399954267
0,00468310665983718
0,00633532437236834
0,00790258080335236
0,0093387781765145
0,0106001861763194
0,011647901426726
0,012449761067736
0,0129815844253844
0,0132276979988279
0,0131807817473936
0,012841149545424
0,0122156353368779
0,0113162924289185
0,0101591226270723
0,00876303365591493
0,0071491798114212
0,00534077723522275
0,00336340908930156
0,00124575629223134
-0,000979384108266506
-0,00327398936319831
-0,00559384268547604
-0,00788794693607475
-0,0100985397883351
-0,0121618799479523
-0,0140098999748141
-0,0155727302263939
-0,0167819996424242
-0,0175747228749121
-0,0178975000175183
-0,0177106942895977
-0,0169922217803773
-0,01574059028407
-0,0139768624971754
-0,0117452901060602
-0,0091124638479131
-0,00616494206105924
-0,00300544603901938
0,000252166796891468
0,0034888326685429
0,00658671135194086
0,00943566248780454
0,0119393013176998
0,0140201929138739
0,0156238073515401
0,0167209535958736
0,0173085289334505
0,0174085531761838
0,0170655911602381
0,0163427916515781
0,0153168750682593
0,0140724777492039
0,0126963008221144
0,0112715141974898
0,00987283132223596
0,00856260183300137
0,00738817371086522
0,00638066275142435
0,00555514524823642
0,00491217035277987
0,0044403816845844
0,00411995217727173
0,00392647851864516
0,00383495595117969
0,00382346189122282
0,00387621614014698
0,00398575217660452
0,0041540216445161
0,00439235471319752
0,0047203036116859
0,00516349641540145
0,00575071480907294
0,00651047614829983
0,00746744157101457
0,00863898528086338
0,0100322448866125
0,0116419306087061
0,0134491061759046
0,0154210719418678
0,0175123881086064
0,019666980519983
0,021821181006671
0,0239074759284779
0,025858676550546
0,0276121879048812
0,0291140417095334
0,0303223746138369
0,0312100743082409
0,031766379712889
0,0319973026068694
0,0319248304230497
0,031584966249823
0,031024754798707
0,0302985247698326
0,02946364202664
0,0285761089134422
0,0276863592472627
0,0268355844497625
0,0260528845902667
0,0253534717636439
0,02473806724351
0,0241935350504253
0,023694691006136
0,0232071267042033
0,0226908007180971
0,022104082562735
0,0214078946759832
0,0205695880863804
0,0195662100144807
0,0183868750776344
0,0170340319246209
0,0155235172961444
0,0138834009528914
0,0121517375710283
0,0103734450483304
0,00859661275193561
0,00686859955059526
0,00523230393628071
0,00372297405742624
0,00236587444752685
0,00117504261287887
0,000153259678277349
-0,000706764971036562
-0,00142012281605301
-0,00200659533098999
-0,0024870463582117
-0,00287972599331598
-0,00319691947891574
-0,0034423559323325
-0,00360972926873592
-0,00368258186178214
-0,00363566888752155
-0,00343776988884817
-0,0030557581890195
-0,00245959374426323
-0,00162778571677313
-0,000552790461154915
0,000754221600003427
0,00225977526686438
0,00390614559674135
0,00561140372957061
0,00727163476075165
0,00876531984051797
0,00995967712096841
0,0107185682978487
0,0109114171305072
0,0104224691746136
0,0091596601560512
0,0070623611800389
0,00410733393520381
0,000312353926357397
-0,0042628653216495
-0,00951860379690736
-0,0153198512445314
-0,0215035117964415
-0,0278875975709538
-0,0342817488451137
-0,0404983098816417
-0,046363144912878
-0,0517254018834529
-0,0564655199941681
-0,0605009227630498
-0,0637890280437584
-0,0663274233263684
-0,068151279635898
-0,0693282910030828
-0,0699516108166948
-0,0701313963808906
-0,0699856580896956
-0,0696311343530495
-0,069174877884876
-0,0687071486902478
-0,0682960742253353
-0,0679843714807788
-0,0677882450307589
-0,0676983958511421
-0,0676829134258251
-0,0676916914010415
-0,0676619144027978
-0,0675241159578753
-0,0672083055981784
-0,0666497037196917
-0,0657936984063586
-0,0645997392426852
-0,0630439975339566
-0,0611207383697404
-0,0588424565570557
-0,0562389164703399
-0,0533552989487699
-0,0502496933338534
-0,0469901796978211
-0,0436517284233142
-0,0403131071101833
-0,0370539355554921
-0,0339519761171891
-0,0310806967305194
-0,0285071035939949
-0,0262898145817159
-0,0244773349921885
-0,0231065040062284
-0,0222011006530372
-0,0217706276917075
-0,0218093249030127
-0,0222954936990502
-0,0231912368376057
-0,0244427256634109
-0,0259810996110844
-0,0277240777544514
-0,0295783212314961
-0,0314425317628584
-0,0332112103071857
-0,0347789373670019
-0,0360449792563209
-0,0369179791062904
-0,037320462843227
-0,0371928825399212
-0,0364969340653768
-0,0352179222992289
-0,03336600261485
-0,0309761972946506
-0,0281071640657921
-0,0248387743281369
-0,0212686341379239
-0,0175077454787622
-0,0136755538887804
-0,00989465788617226
-0,00628546451037078
-0,00296106431128761
-2,25706588024798E-05
0,00244487387964546
0,00437527241224837
0,00572403312696741
0,00646927050291993
0,00661215457089369
0,00617635539315244
0,00520666121513208
0,00376687012896954
0,00193706758120618
-0,000189592376593132
-0,00251048306627873
-0,00491736007072692
-0,00730035704094047
-0,00955200291132751
-0,0115711371705507
-0,0132665943242445
-0,0145605231749238
-0,0153912035177045
-0,0157152251982618
-0,0155089050394751
-0,0147688382160747
-0,0135115135127719
-0,0117719664569657
-0,00960149888787814
-0,00706455483974192
-0,00423490600396938
-0,00119135978672108
0,00198674706223382
0,00522397209113154
0,00845279757465786
0,0116169683311999
0,0146738745096803
0,0175957788332052
0,0203697711584159
0,0229964321731403
0,0254872947946163
0,0278612972088346
0,0301405158666706
0,0323455409492693
0,0344909029655775
0,0365809716246833
0,0386067241272906
0,0405437200216084
0,0423515275914675
0,0439747293413218
0,0453455010761595
0,0463876216667306
0,0470216409596094
0,047170823196434
0,0467674030731246
0,0457586490703912
0,0441122285532019
0,041820412281057
0,038902739414447
0,0354068812091439
0,0314075826060632
0,0270037138715739
0,0223136161618266
0,0174690622728311
0,0126082650063403
0,00786844097328681
0,00337847091640284
-0,000747813859225371
-0,00441724420496416
-0,00756144327530278
-0,0101392150454272
-0,0121370734499002
-0,0135679418884311
-0,0144681937549053
-0,0148933271193438
-0,0149126607742012
-0,0146034974476645
-0,0140452193411216
-0,0133137611707129
-0,0124768500192018
-0,0115903160463512
-0,0106956723697205
-0,00981904654694439
-0,00897143083653594
-0,00815011393432488
-0,00734107177637993
-0,0065220355688255
-0,00566592497161783
-0,00474433385378335
-0,00373078293324239
-0,00260350310036351
-0,00134757865473507
4,36466383836034E-05
0,00156792377546261
0,00321416908165679
0,00496315302598521
0,00678867196265473
0,00865904900669512
0,0105388101428541
0,0123903974371016
0,0141758088285834
0,0158580882952801
0,0174026257936097
0,0187782581591988
0,0199581860147506
0,0209207350057073
0,0216499914466999
0,0221363336177609
0,0223768629957592
0,0223757184423113
0,0221442352728107
0,0217008947878538
0,0210710022783817
0,0202860355793069
0,0193826232315928
0,0184011406146201
0,0173839515700403
0,0163733679119588
0,0154094444111365
0,0145277663370222
0,0137574144858176
0,0131193037228087
0,0126250818144788
0,0122767442102211
0,0120670683651766
0,011980901570021
0,0119972548052748
0,012092069417668
0,0122414421581817
0,012425026315385
0,0126292806614695
0,0128502204472392
0,0130953400490515
0,0133844263880298
0,0137490638443242
0,014230739648006
0,0148775851850058
0,0157399224899026
0,0168649141358395
0,0182907261852046
0,0200406961118969
0,022118040978815
0,0245016390609345
0,0271433677853941
0,0299673838774865
0,0328715938422119
0,0357313942875337
0,0384055752719858
0,0407440912237764
0,0425972293300071
0,0438255604018549
0,0443099559402261
0,0439609080442568
0,0427264022732095
0,0405976689427692
0,0376122717402741
0,0338541750614111
0,0294506497413714
0,0245661141440513
0,0193932450776543
0,0141419114279563
0,00902666456019348
0,00425364791835461
7,85236122501772E-06
-0,00355836283774328
-0,00633464151438192
-0,00825919743488955
-0,00932207975605258
-0,00956488186167449
-0,00907690190097079
-0,00798802856230001
-0,00645887154793388
-0,00466886341440821
-0,00280321144026225
-0,00103966286867538
0,000463942486387535
0,00158042255427034
0,00222153056160787
0,00234317727850108
0,00194725228243704
0,00107996040545317
-0,000173144308479764
-0,00169499520758847
-0,00334707461492047
-0,00498089348946406
-0,0064499853677396
-0,00762148516412492
-0,0083864101883529
-0,00866787533671741
-0,00842664690679547
-0,00766365557056886
-0,00641933113004967
-0,00476987045378189
-0,0028207859039656
-0,000698286378922633
0,00146079860472003
0,00351974113607198
0,00535243736466479
0,00685291507279035
0,00794310494505323
0,0085783020496931
0,00874993371995709
0,00848546590306434
0,00784550490692176
0,00691836777130141
0,00581258567475716
0,00464795662880701
0,00354586529158017
0,00261963222733292
0,00196564005032666
0,00165591188832679
0,00173269508857162
0,00220544035389224
0,00305037667772786
0,00421268047728931
0,00561103874294556
0,0071442258278646
0,00869916500903103
0,0101598398531755
0,0114163640324163
0,0123735150102955
0,0129580863789183
0,0131245110672995
0,0128583451111074
0,0121773682772959
0,0111302406398534
0,00979283922607014
0,00826257217302576
0,00665111652397052
0,00507613899750258
0,00365262865348414
0,00248449165257292
0,00165703024001782
0,00123085339541973
0,00123765152066066
0,00167812134692005
0,00252216146131867
0,00371128642169604
0,0051630416759754
0,00677705508536374
0,00844224484071029
0,0100446264931612
0,0114751291349674
0,0126368443048411
0,0134511891434908
0,0138625623470038
0,0138411991638711
0,0133840792921734
0,0125138968472618
0,0112762519050225
0,00973535641174082
0,00796865301485925
0,00606081555949749
0,00409762971386356
0,00216023993278543
0,000320196892944048
-0,00136434697284149
-0,00285105885528104
-0,00411435734234743
-0,00514488086233936
-0,00594764458530326
-0,00653914506540004
-0,00694375244612414
-0,00718977728315249
-0,0073056096697377
-0,00731630245025224
-0,00724091115493513
-0,00709081715523516
-0,00686915591664536
-0,0065713592031281
-0,00618670923786374
-0,00570070441385974
-0,0050979590576879
-0,00436531081727278
-0,00349479258259466
-0,00248614256627013
-0,00134857428667043
-0,000101602852662759
0,00122518206889261
0,00259340188920338
0,00395813372483362
0,00527091877297979
0,00648326168445223
0,00755029602924719
0,0084342689661473
0,00910750855908371
0,00955457898505243
0,00977339852135882
0,00977518654733926
0,00958321077248318
0,00923041523035086
0,00875611355552451
0,00820202146637758
0,00760796918266804
0,00700767266737131
0,00642494842259368
0,00587072922547485
0,00534117952514384
0,00481712382366265
0,00426489599376181
0,00363860065577747
0,00288365891260541
0,00194139962245619
0,000754363099326845
-0,00072808549269766
-0,00254427482431851
-0,00471532487401044
-0,00724123981569444
-0,0100983497264116
-0,0132383625305004
-0,016589173537388
-0,020057452135313
-0,02353289319526
-0,0268938943522864
-0,0300143091026028
-0,0327708380268005
-0,0350505632199714
-0,0367581087362954
-0,0378219246318874
-0,0381992433664044
-0,037879341617421
-0,036884852266983
-0,0352710026727665
-0,0331227971108597
-0,030550303393445
-0,0276823359413832
-0,0246589404530139
-0,0216231705024727
-0,0187126975686641
-0,0160518092280819
-0,0137443242620163
-0,0118678898806721
-0,010470029470591
-0,00956618606930554
-0,00913986597897096
-0,00914483877196748
-0,00950920524947133
-0,0101410144169525
-0,0109350039680376
-0,0117799641631906
-0,0125661880627922
-0,0131924746913782
-0,0135721956835253
-0,0136380169734758
-0,0133449788921904
-0,0126717719427338
-0,0116201909857819
-0,0102128960141693
-0,00848974147707309
-0,00650304733259061
-0,00431226454488259
-0,00197852892437643
0,000440403541648222
0,00289438956168527
0,00534393088786204
0,00776175111180026
0,0101327982585122
0,0124527021385445
0,0147248616541534
0,0169564694488546
0,0191538877824461
0,0213178606193676
0,0234390758370795
0,0254945748888893
0,0274454456930674
0,0292361323622881
0,0307955605694795
0,0320401207091809
0,032878385507009
0,033217278243946
0,0329692660442074
0,0320600421135301
0,0304360914186153
0,0280715127559777
0,0249734993493254
0,021185958685198
0,0167908748874483
0,0119071744569181
0,00668703667445449
0,00130977940734249
-0,00402636531207171
-0,00911410819233121
-0,013747984040703
-0,0177355626420437
-0,0209082575712847
-0,0231310178514629
-0,024310255818734
-0,0243994797038593
-0,0234022524990866
-0,0213722780671597
-0,0184106077020433
-0,0146601512501545
-0,0102978526066646
-0,005525037449263
-0,0005565514181128
0,00439062743500162
0,00910860068698403
0,0134089154273534
0,0171314881956727
0,0201516034585749
0,0223846434365433
0,0237883634855787
0,0243626899090264
0,0241471734499195
0,0232163712379727
0,021673543897685
0,0196431364577592
0,0172625579896057
0,0146737846566118
0,012015285969823
0,00941471875357284
0,00698275376743629
0,00480830353685675
0,00295531474596506
0,00146118248153806
0,000336743986764084
-0,00043227755492872
-0,000882578816200382
-0,00106958168822769
-0,00106301787444828
-0,000942082104779381
-0,000790435259847315
-0,000691315962792962
-0,000722985658755058
-0,000954691844837229
-0,00144329074918406
-0,00223062764058164
-0,00334173256069931
-0,00478385321616319
-0,00654631575587307
-0,00860117812536624
-0,0109046189899925
-0,0133989868672142
-0,016015418065636
-0,0186769174379019
-0,0213017823478566
-0,0238072376926035
-0,0261131388990421
-0,0281455916354699
-0,0298403329764237
-0,0311457204833617
-0,0320251845454343
-0,0324590163937243
-0,0324453898493081
-0,0320005487061292
-0,0311581324043246
-0,0299676581907584
-0,0284922254377855
-0,0268055538610356
-0,0249885084774674
-0,0231252969066726
-0,021299546136776
-0,0195904740787068
-0,0180693651142287
-0,0167965385900061
-0,015818966227446
-0,0151686512494616
-0,0148618320666818
-0,014899020612557
-0,0152658340289142
-0,0159345323283862
-0,0168661372318429
-0,0180129810414427
-0,0193215204434017
-0,0207352486401437
-0,0221975490971676
-0,0236543533822643
-0,0250564912827928
-0,0263616504821932
-0,0275358924229729
-0,0285546978930878
-0,0294035383146448
-0,0300779856009226
-0,0305833846716168
-0,0309341191232968
-0,0311525037200919
-0,0312673393858838
-0,0313121693993707
-0,0313232814180172
-0,0313375100539797
-0,0313899093460785
-0,0315113828748207
-0,0317263796537131
-0,0320507835048071
-0,0324901389504885
-0,0330383640439178
-0,0336770965451977
-0,0343758017314097
-0,0350927364404495
-0,0357768148108582
-0,0363703585543252
-0,0368126423166571
-0,0370440682085841
-0,037010729703136
-0,0366690612609366
-0,0359902236925547
-0,0349638530530529
-0,033600807870293
-0,0319345885517112
-0,0300211739868501
-0,0279371207239446
-0,0257758936852812
-0,0236425355591576
-0,0216469240194479
-0,0198959997518737
-0,0184854617043747
-0,0174915076665214
-0,0169632388739341
-0,0169163404697106
-0,0173285927188237
-0,0181376624544099
-0,0192414762808356
-0,0205012965041712
-0,0217474209335776
-0,0227872242800687
-0,0234150686316251
-0,0234234498376529
-0,0226146302382775
-0,0208119475036869
-0,0178699916037578
-0,0136829092300359
-0,00819022397859428
-0,00137974253788086
0,00671266151654731
0,0160063513044009
0,02638203687244
0,0376901839061414
0,0497610231841062
0,0624153282682774
0,0754750616349043
0,0887729969231569
0,102160508245323
0,115512871151184
0,128731632299002
0,14174385924395
0,154498357129607
0,166959212282107
0,179097270234319
0,190880355707043
0,202263176298132
0,213177907060069
0,223526423258728
0,233175034035052
0,241952378347168
0,249650891098205
0,256031952025474
0,260834516987907
0,263786727008671
0,26461972084145
0,263082665549153
0,258957885724673
0,252074928465053
0,242322453544634
0,229656983938166
0,214107780518839
0,195777398840632
0,174837822043931
0,151522414843161
0,126114280326227
0,0989318957053942
0,0703131301252757
0,0405988872988317
0,0101176552163055
-0,0208278202910316
-0,051970687908575
-0,0830861743132724
-0,11399332852421
-0,144552224986017
-0,174656905389425
-0,204224704433429
-0,233182923051211
-0,261454057560976
-0,288940943918637
-0,315513219263656
-0,340996433290146
-0,365164963580584
-0,387739614585125
-0,408390429746784
-0,426744846864273
-0,442400908698039
-0,454944836294446
-0,46397191288151
-0,46910933956458
-0,470039532978485
-0,466522254860941
-0,458414001089026
-0,445683231003401
-0,428420275974839
-0,40684111038128
-0,381284573216685
-0,352203064701562
-0,320147177547077
-0,285745125207162
-0,249678170446351
-0,212653512587772
-0,175376243254219
-0,138522018550648
-0,102712019262077
-0,0684915871438343
-0,0363136499749919
-0,00652770258223266
0,0206252778300483
0,0450120065648107
0,0666005681267338
0,0854493496355431
0,101692261509327
0,115521465755474
0,127168925019026
0,136888078022759
0,144936843706501
0,1515629690412
0,156992482175978
0,161421715921063
0,165013051863213
0,167894228564715
0,170160782641313
0,171880969932307
0,173102361206632
0,173859232430753
0,174179876141035
0,174093043659594
0,173632877088158
0,172841889300248
0,171771779762864
0,170482112275251
0,169037105775517
0,167500981296213
0,165932450458283
0,164379012014867
0,162871737063024
0,161421170997554
0,160014867426383
0,158616907765668
0,157169565889623
0,1555970685337
0,153811198587049
0,151718308629058
0,149227172315514
0,14625701384758
0,142745028260527
0,138652739636033
0,133970637008065
0,128720669942711
0,122956364541045
0,11676051981235
0,110240646359198
0,10352249643578
0,0967421906375044
0,090037558629069
0,0835393704276284
0,0773631365550795
0,0716021007024122
0,0663219430891638
0,0615575664317782
0,0573121626072624
0,0535585720393483
0,0502427655248898
0,0472891149045806
0,0446069878532679
0,0420981131720603
0,0396641224639853
0,0372136837309925
0,0346686997556029
0,0319691425515558
0,0290762248916345
0,0259737588125925
0,0226677057240022
0,01918406997289
0,0155654153016969
0,0118663815323822
0,00814863997710031
0,00447574686917477
0,000908334510717232
-0,00249997668856008
-0,00570564906782252
-0,00867709377961944
-0,0113952641072637
-0,0138530280884525
-0,0160534822438793
-0,0180074584450818
-0,0197305394625799
-0,0212399308234772
-0,0225515355152181
-0,0236775448974104
-0,0246247977912135
-0,0253940762765285
-0,0259804091386844
-0,0263743510744814
-0,026564106874617
-0,0265382834811283
-0,0262889865138833
-0,0258149372109989
-0,0251242741552521
-0,0242367226266697
-0,0231848614172202
-0,0220142886104785
-0,0207825783309403
-0,0195570224396171
-0,0184112563389388
-0,0174209678998879
-0,0166589749051979
-0,0161900221923917
-0,0160656893373635
-0,0163198096605511
-0,0169647802764027
-0,017989091885281
-0,019356329369212
-0,0210057953963707
-0,0228547962078776
-0,0248025097538196
-0,0267352400889899
-0,0285327570893663
-0,0300753349824383
-0,0312510434901562
-0,0319628162802531
-0,0321348254755487
-0,0317177282972606
-0,0306924202323089
-0,0290720238172413
-0,0269019566512914
-0,0242580485391271
-0,0212428067400887
-0,0179800509632629
-0,0146082472225097
-0,0112729543360652
-0,00811885273116616
-0,00528184854455392
-0,00288173540138171
-0,00101585292833352
0,000245891391358318
0,000864366202787888
0,00083276699189095
0,000176333559746469
-0,00104968799431557
-0,00276365324524213
-0,00486242145696906
-0,00722720860087564
-0,00973000829468437
-0,0122401860602811
-0,014630868479267
-0,0167847895945975
-0,0185993173866481
-0,019990457087832
-0,0208957085637047
-0,0212757350096412
-0,0211148734272234
-0,0204205785851416
-0,0192219378615834
-0,0175674228080586
-0,0155220546395247
-0,0131641571153799
-0,0105818547419437
-0,00786945121416022
-0,00512379713982863
-0,00244073178623519
8,83355066895376E-05
0,00237965005800949
0,00436009139763614
0,00596985125022739
0,00716474267464944
0,00791805969777303
0,00822189491321164
0,00808781640504987
0,00754680876536827
0,00664839874508064
0,0054589155650114
0,00405887875312243
0,00253956034627517
0,000998829438612026
-0,000463549967733202
-0,00175093832138695
-0,00277487997736068
-0,00345989497433283
-0,00374768649265916
-0,00360046339879217
-0,00300311907596659
-0,00196407371192484
-0,000514673318248674
0,00129286123165473
0,00338883578392787
0,00569063249999938
0,00810811342121692
0,0105495126534645
0,0129274074218643
0,0151643453306322
0,0171977256099649
0,0189835848853646
0,0204990191086998
0,0217430762542829
0,0227360706746062
0,0235173899113991
0,0241419782065968
0,0246757784506518
0,0251904878588785
0,0257580264014005
0,0264451278372217
0,0273084409182521
0,0283904756968349
0,0297166522981007
0,0312936144377672
0,0331088662095213
0,0351316874877438
0,037315189601012
0,039599296366497
0,041914381906073
0,0441852692384766
0,0463352932137276
0,0482901560476816
0,0499813493833126
0,0513489774804358
0,0523438847219226
0,052929059695763
0,0530803506215812
0,0527865769673005
0,0520491555451964
0,0508813740963776
0,0493074415009724
0,0473614235404186
0,0450861406837284
0,0425320650327612
0,0397562133848502
0,0368209983218722
0,0337929745508214
0,0307414072670489
0,027736595164145
0,0248479028549295
0,0221414938466224
0,0196778018212861
0,0175088294060781
0,0156754135424095
0,0142046384562
0,0131076051272281
0,0123777752450667
0,0119900949726978
0,0119010685763096
0,0120498956900274
0,0123607125336675
0,0127458926263477
0,013110273821103
0,0133560939587715
0,013388345325472
0,0131202058043731
0,0124781780415106
0,0114065708451195
0,00987099056163448
0,00786057269138724
0,00538877118109877
0,00249262790525533
-0,000769440754017311
-0,00432118927195769
-0,00807316555765571
-0,0119280716950777
-0,0157864666726928
-0,0195523903458738
-0,023138498443983
-0,0264703436097309
-0,0294895135670124
-0,0321554380703251
-0,0344457924568119
-0,0363555470944386
-0,03789482783747
-0,0390858522221871
-0,039959280401186
-0,040550361786623
-0,0408952640683275
-0,0410279400267129
-0,0409778221964141
-0,0407685420119213
-0,0404177574016868
-0,0399380516622779
-0,0393387486094215
-0,0386283861074192
-0,0378175125640655
-0,0369214270388876
-0,0359624783672278
-0,0349715736795187
-0,0339886194955792
-0,0330617231536292
-0,0322451093099823
-0,0315958438493925
-0,0311695925898555
-0,0310157612536228
-0,0311724540594442
-0,0316617408991838
-0,0324857307107029
-0,0336239086195004
-0,0350321083754204
-0,0366433656667205
-0,0383707420082603
-0,0401120362844766
-0,0417561267955912
-0,0431905266787222
-0,0443096049398112
-0,0450228369417386
-0,0452624116217086
-0,0449895430956667
-0,0441989119227544
-0,0429207912831369
-0,0412205860411849
-0,0391957144757858
-0,0369699767582606
-0,0346857629923579
-0,0324946387625727
-0,030546991313969
-0,0289815114637705
-0,0279153162213695
-0,0274354811637221
-0,027592651766732
-0,0283972465237453
-0,0298185641451861
-0,0317868787006141
-0,0341983690816327
-0,036922502455586
-0,0398112945065482
-0,042709718924657
-0,0454664476492111
-0,0479440796604202
-0,050028061868592
-0,0516336171356183
-0,0527101624319146
-0,0532429104292054
-0,0532515827623488
-0,0527864029198676
-0,0519217610060145
-0,0507481325872108
-0,0493629735120056
-0,0478613903882718
-0,0463273959577036
-0,0448264994639998
-0,0434002596334976
-0,0420632528184004
-0,0408026964031043
-0,039580736022538
-0,0383391743342081
-0,0370062086697424
-0,0355045726482775
-0,0337603571937706
-0,0317117291652423
-0,0293167754428169
-0,0265597754977295
-0,0234553393605727
-0,0200500286913782
-0,016421290671975
-0,0126737595401232
-0,00893319966007507
-0,00533855874898073
-0,00203275415096163
0,000847083557693683
0,00317914467183833
0,00486550982162643
0,00583909555264542
0,00606845254014333
0,00556006921080591
0,00435803497356454
0,00254112668245934
0,000217581874323569
-0,00248200358724452
-0,00541308138836779
-0,00842620342782936
-0,0113760353803158
-0,0141296725032295
-0,0165736787570498
-0,0186193942883788
-0,0202062127980735
-0,0213027051068744
-0,0219056429903152
-0,0220371429796974
-0,0217402896685624
-0,0210737011628283
-0,0201055581971376
-0,0189076297121174
-0,0175497922363121
-0,0160954631449255
-0,0145982572671378
-0,0131000434925203
-0,0116304357949359
-0,0102076146746684
-0,00884025293771348
-0,00753022469551791
-0,00627571642043522
-0,00507433843920339
-0,00392585519883495
-0,00283421012444487
-0,00180860958600211
-0,000863541297653984
-1,77243686848622E-05
0,000707890745694121
0,00129284571629354
0,00172030924104648
0,00198025747652831
0,0020723169517918
0,00200790847563021
0,00181138910878666
0,00151997974392026
0,00118238004231849
0,000856100017789937
0,000603666641175256
0,000487982345136126
0,000567208941836983
0,000889615651078472
0,00148885686101406
0,00238013034577953
0,00355761012887504
0,00499345391717685
0,00663856038720967
0,00842510685380769
0,0102707452165653
0,0120841868325163
0,0137717781568746
0,0152445703878939
0,0164253273416374
0,0172549024699519
0,0176974506548015
0,0177440212836188
0,0174142002902545
0,0167556208179242
0,0158413325826632
0,0147651947173473
0,0136356210122378
0,0125681459066602
0,0116773820024988
0,0110689960112177
0,0108323344352056
0,0110342818775616
0,0117148371465496
0,0128847530416104
0,0145254163632772
0,0165909594439307
0,0190124091072235
0,0217035092906272
0,0245677143061501
0,027505753022865
0,0304231186911
0,0332368488878411
0,0358810245243011
0,0383105306728629
0,0405027754353993
0,0424572430004215
0,044192947871254
0,0457440424228542
0,0471539933563273
0,0484688700035617
0,049730367655564
0,0509692151065058
0,0521995850953105
0,0534150418897271
0,0545864291846492
0,0556619350944959
0,056569383695903
0,0572206104392966
0,0575175983066308
0,0573598982413352
0,0566527440962435
0,0553152085861948
0,0532877376058903
0,0505384461738489
0,047067655881892
0,0429102924622646
0,0381359308904336
0,0328464598748358
0,0271715221302115
0,0212620562597985
0,0152824067040676
0,00940156915531698
0,00378419275601313
-0,00141803585407541
-0,00607404683294421
-0,0100795889889939
-0,013361612397283
-0,0158806125540434
-0,0176308749852131
-0,0186387145839013
-0,0189589439700123
-0,0186699191307942
-0,0178675905664878
-0,0166590294574433
-0,0151558999202214
-0,0134683126624133
-0,0116994278035042
-0,00994108334042181
-0,00827062027585082
-0,00674896608119966
-0,00541993483178674
-0,00431061369891224
-0,00343263821629422
-0,00278411701001638
-0,00235195193893443
-0,0021143105091754
-0,00204304025330354
-0,00210586383860427
-0,00226825207051275
-0,00249493233899027
-0,00275104539227586
-0,00300300764656811
-0,00321916525296689
-0,00337033754525546
-0,00343034121456708
-0,00337656463057351
-0,00319062799935756
-0,00285912471354704
-0,00237439818414381
-0,00173527256202574
-0,000947630318941537
-2,4718639525953E-05
0,00101292771551203
0,00213803670927661
0,00331767414239386
0,00451484558372016
0,00569057093161404
0,00680632073730201
0,0078266526792385
0,00872184778877918
0,00947032423258109
0,0100606051048032
0,0104926372216264
0,0107782996392003
0,010941000598664
0,0110143349962626
0,0110398548944955
0,0110640857245765
0,0111349931462043
0,0112981629710756
0,01159299326754
0,0120492096511863
0,0126839999477298
0,0135000234086196
0,0144844854291285
0,0156093863566707
0,0168329593675237
0,0181022154831468
0,0193564219928913
0,0205312618687337
0,0215633631258914
0,0223948537355898
0,0229775926209226
0,0232767510239648
0,0232734691259608
0,0229663859065918
0,0223719295721501
0,0215233538057815
0,0204686032498663
0,0192671817412094
0,0179862713752501
0,0166964034416074
0,0154670095590102
0,0143621811636429
0,013436938513978
0,0127342595217333
0,0122830489884966
0,0120971467333538
0,0121753860694256
0,0125026298081807
0,0130516366478557
0,0137855525699795
0,0146607842341446
0,0156299968402811
0,016644987896925
0,0176592189972933
0,0186298363723913
0,0195190724195616
0,0202949883469363
0,0209315858750086
0,0214083771537902
0,0217095510612405
0,0218229065400294
0,0217387369947008
0,0214488432936373
0,0209458278253307
0,0202227813338189
0,0192734223597037
0,0180926914960809
0,0166777452615273
0,0150292430180523
0,0131527801806536
0,0110602959917289
0,00877127685691137
0,00631358740876121
0,00372379002361967
0,00104685673092725
-0,00166476883155529
-0,00435274269473939
-0,00695494958133626
-0,00940806133593809
-0,0116503545181194
-0,0136245899330296
-0,0152807473567229
-0,016578417546746
-0,0174886799379091
-0,0179953357170335
-0,0180954183259372
-0,0177989619592236
-0,017128067842215
-0,0161153625498418
-0,0148019874137211
-0,01323528922873
-0,0114663974090613
-0,00954787048349578
-0,00753157602367527
-0,00546693505264055
-0,00339961828419212
-0,00137073179473531
0,000583520982443839
0,00243176062528064
0,00414703399263304
0,00570622044881385
0,00708937595259077
0,00827914435794693
0,00926034610345449
0,010019823033249
0,010546577961565
0,0108322032514565
0,0108715490045407
0,0106635432845513
0,0102120483611714
0,00952662151556855
0,00862304840390297
0,00752353169483228
0,00625644647442463
0,0048556140512432
0,00335909339662149
0,00180753977372472
0,000242228040878374
-0,00129712132661472
-0,00277454659665526
-0,0041598987666732
-0,00543056741675602
-0,0065727207923657
-0,00758193832183177
-0,00846316237879801
-0,00922995322760788
-0,00990309157008864
-0,0105086313603292
-0,0110755560587399
-0,0116332293720022
-0,0122088529451742
-0,0128251461035006
-0,0134984459097714
-0,0142373906814605
-0,015042299550987
-0,0159052990222103
-0,0168111802457923
-0,0177389040094776
-0,0186636103920474
-0,0195589423664071
-0,02039946200874
-0,0211629275885346
-0,0218322110582399
-0,0223966677538331
-0,0228528209168998
-0,0232042886239349
-0,0234609541006494
-0,0236374555114063
-0,0237511410905345
-0,023819693150058
-0,023858664202708
-0,0238791857850529
-0,0238861031045041
-0,0238767561206714
-0,0238405721764762
-0,0237595611176562
-0,0236097171656103
-0,0233632402586133
-0,0229914015441349
-0,0224678016449132
-0,0217717139756909
-0,0208911750716656
-0,0198254838353778
-0,0185868035280035
-0,0172006231029804
-0,0157049241650664
-0,0141480098554051
-0,0125850735904855
-0,0110737085859637
-0,0096686725996766
-0,00841631569801072
-0,00734914268154114
-0,00648100874965886
-0,00580343253325909
-0,00528345358374844
-0,00486336419208027
-0,00446251396162863
-0,0039812290265106
-0,00330671786333626
-0,00232066566550821
-0,00090806317359002
0,00103331288165515
0,00358344023882049
0,00679132657682017
0,0106677221670193
0,0151799050824146
0,0202490557333586
0,0257505743562364
0,0315174984466086
0,037346961012286
0,0430094108121509
0,0482601090273053
0,0528522389786151
0,0565508305562843
0,059146619884288
0,0604689443760557
0,060396816177868
0,0588674207257843
0,0558814448344259
0,0515048394238766
0,0458668514782511
0,0391544018155948
0,0316031225889101
0,0234855844232615
0,0150974227544485
0,00674220408660664
-0,00128405296310248
-0,00870777409183221
-0,0152912636910049
-0,0208439024984107
-0,0252304869208505
-0,0283762782727326
-0,0302685430855714
-0,0309545868002991
-0,0305364977014686
-0,0291630120569955
-0,0270190731885238
-0,0243137774256606
-0,0212674725381269
-0,0180987967016889
-0,0150124191270524
-0,0121881711226252
-0,00977214522192709
-0,00787019883943026
-0,00654413785421571
-0,00581068535664429
-0,00564317223922174
-0,00597572934054558
-0,00670962416504259
-0,00772127574633533
-0,00887140397163345
-0,0100147274329102
-0,0110096172784826
-0,0117271421980731
-0,01205899838233
-0,0119239032805949
-0,0112721373236319
-0,0100880367068637
-0,00839036570826259
-0,00623062162807736
-0,003689442438927
-0,000871390409545949
0,00210153091652079
0,00509720802150884
0,00798114345928378
0,0106241149913957
0,0129093247888595
0,0147386392891246
0,016037585761832
0,0167588546366922
0,0168841519295821
0,0164243477983001
0,0154179692132682
0,0139281808630217
0,0120384831151076
0,00984742427991696
0,00746267283405798
0,004994821203156
0,00255129518826672
0,000230722645559907
-0,00188192646460875
-0,00371917582553965
-0,0052336742605774
-0,00639952417582543
-0,0072122924143557
-0,00768777080044437
-0,00785962786641309
-0,00777615538919705
-0,00749635987653181
-0,00708567764423967
-0,00661160147587837
-0,00613949722551446
-0,0057288615122881
-0,00543022936114935
-0,00528288665266113
-0,00531348059377547
-0,00553555647649067
-0,0059499851849782
-0,00654618743626553
-0,0073040112906342
-0,00819608201994786
-0,00919042007853351
-0,0102531147777521
-0,0113508484036194
-0,01245308699076
-0,0135337879094219
-0,0145725181661021
-0,0155549275905353
-0,0164725741996909
-0,017322151169707
-0,0181042122713607
-0,0188215319414971
-0,0194772645459704
-0,0200730827860906
-0,0206074764634508
-0,0210743798172631
-0,0214622692864618
-0,0217538357217619
-0,0219262885569218
-0,0219522977164836
-0,0218015260162873
-0,0214426546121794
-0,0208457606388717
-0,0199848730852343
-0,0188405129717269
-0,017402018856774
-0,0156694692762422
-0,0136550393595558
-0,0113836677820116
-0,00889295950705228
-0,00623230563693735
-0,00346125970695551
-0,000647265239936779
0,00213712222007979
0,00481733809577913
0,00732003326910655
0,00957620979536726
0,0115240676414979
0,0131113883536794
0,0142973214135673
0,0150534891780778
0,0153643822718418
0,0152270741419038
0,0146503360797978
0,013653277640722
0,0122636680887056
0,0105161095368702
0,00845023053098014
0,00610905029625976
0,00353763066586651
0,000782088268895432
-0,00211101156170669
-0,00509491014491315
-0,00812263928100785
-0,0111468514790371
-0,0141196392860138
-0,0169924941054688
-0,019716544004553
-0,02224318089154
-0,024525142383037
-0,0265180566626436
-0,0281823951015149
-0,0294857137389047
-0,0304050076713664
-0,0309289584226778
-0,0310598290369094
-0,0308147589806021
-0,030226233048221
-0,0293415451320176
-0,0282211463947711
-0,0269358532481234
-0,0255629868867819
-0,0241816148376382
-0,0228671572606257
-0,0216856978374124
-0,0206883931557924
-0,0199063993000383
-0,0193467259540003
-0,0189893854790003
-0,0187861289128359
-0,0186609573353532
-0,0185124729326069
-0,0182179988310722
-0,0176392612263854
-0,0166293028056332
-0,0150401937880392
-0,0127310354202535
-0,00957571747911631
-0,00546990022572891
-0,000336742821211292
0,00586900869441159
0,0131588367536749
0,0215102865609889
0,0308687762946152
0,0411511832997033
0,0522508646449288
0,0640436562325585
0,0763943182779605
0,0891628636687327
0,102210222971281
0,115402765036926
0,128615300434055
0,141732337621389
0,154647526987589
0,167261401532694
0,179477689912325
0,191198622957635
0,202319765320788
0,212724969073164
0,222282059112759
0,230839818768363
0,23822675034824
0,244251946499423
0,248708235113248
0,251377567311219
0,25203842096572
0,250474808090873
0,246486319325082
0,239898526466916
0,230573005069877
0,218416239534155
0,20338673412406
0,18549977095147
0,16482942146662
0,14150761850966
0,11572031554368
0,0877009805887656
0,0577218765635316
0,0260837503775172
-0,00689532404446123
-0,0408911390410874
-0,0755837725086941
-0,110666487091729
-0,145852487456444
-0,180879088831154
-0,215509062179025
-0,249529154178166
-0,282746015404381
-0,314979989248633
-0,346057399893219
-0,375802115380751
-0,404027240405727
-0,430527806394306
-0,455075272165114
-0,477414530483667
-0,497263942405076
-0,514318704803099
-0,528257612428844
-0,5387530217141
-0,54548357752102
-0,548149043678653
-0,546486399122799
-0,540286236464944
-0,529408437765034
-0,513796107666265
-0,493486816759073
-0,468620343368131
-0,439442291061759
-0,406303189666559
-0,369652944446527
-0,330030764759293
-0,288050962898735
-0,24438524957829
-0,199742349993318
-0,154845911665152
-0,110411763811987
-0,0671256132100985
-0,0256222229857616
0,0135329778111563
0,0498590571727517
0,0829709120245088
0,112586387247996
0,138529035973446
0,160726610199304
0,179205590125486
0,194082251281378
0,205550919931854
0,213870171739596
0,21934778212045
0,222325238665854
0,223162579478456
0,222224232513143
0,219866408848464
0,216426457881469
0,212214436300679
0,207506986953808
0,202543479106183
0,19752423718901
0,192610587806354
0,187926388753289
0,183560670522206
0,179571019005252
0,175987354198967
0,172815808150322
0,170042469342427
0,167636832806734
0,16555486816575
0,16374168495813
0,162133830642071
0,160661297821976
0,15924934149454
0,157820214214294
0,156294918399318
0,154595053186025
0,152644801907074
0,15037306949332
0,147715741049392
0,144617997385019
0,141036593647751
0,136941985822493
0,132320178258474
0,12717416416404
0,121524839940388
0,115411292401786
0,108890383936585
0,102035592747998
0,094935101564071
0,0876891666678612
0,0804068378568401
0,0732021371606943
0,0661898380993501
0,0594810162948317
0,0531785647937862
0,0473728820397112
0,0421379457147933
0,0375279805258042
0,0335749116378962
0,0302867675412279
0,0276471569418366
0,0256158948269611
0,0241307950159988
0,0231105829606732
0,0224588167831961
0,022068640637952
0,0218281369301891
0,0216259972311174
0,0213572000895961
0,020928370772198
0,0202625055941871
0,01930277278458
0,018015152002277
0,016389743146043
0,0144406578553965
0,0122044985111743
0,00973752306686192
0,00711168262120216
0,00440979534498359
0,00172017896831033
-0,000868900413811713
-0,0032745960851641
-0,00542431572370412
-0,00725971824677405
-0,00873963343107814
-0,00984174879188112
-0,0105630020451757
-0,0109187138271057
-0,010940586287872
-0,0106737712705783
-0,0101732708356117
-0,00949996845565897
-0,00871659903135208
-0,00788395004992314
-0,00705754714466049
-0,00628501947699407
-0,00560426978934676
-0,00504249769068191
-0,0046160500079862
-0,00433100569821979
-0,00418435056883644
-0,00416556297832288
-0,00425841782738474
-0,0044428224384274
-0,00469652220095639
-0,00499655224351398
-0,00532035868404155
-0,00564656335010225
-0,00595539335654621
-0,0062288363178734
-0,00645060918019737
-0,00660604120135556
-0,00668196885784873
-0,00666672360959024
-0,0065502653993478
-0,00632447964904439
-0,00598361828672736
-0,00552483110003221
-0,00494870714115947
-0,0042597306899409
-0,00346655468360798
-0,00258200711266334
-0,00162277146466439
-0,000608718060842666
0,000438095074928413
0,00149469031302523
0,00253860729546163
0,00354937880184107
0,00450989928599757
0,00540753892589845
0,00623487178868758
0,00698991814023586
0,00767584530872564
0,00830012463373612
0,00887319857469241
0,00940676618396325
0,00991184109425819
0,0103967688519804
0,0108654059853913
0,0113156594251727
0,0117385614658324
0,0121180139954042
0,0124312796639168
0,0126502318999698
0,012743306156343
0,012678027803658
0,0124239339100837
0,0119556621562746
0,0112559545401283
0,0103183188473714
0,00914910780072418
0,00776881313441129
0,00621242661008277
0,00452878776441483
0,00277891346618796
0,00103338115061677
-0,00063109018900917
-0,00213565509377819
-0,00340369938620048
-0,00436525805590841
-0,00496120181043863
-0,00514691233029196
-0,00489519713464865
-0,00419824269601509
-0,00306846548989264
-0,00153819070888919
0,0003418373350648
0,00250503536870173
0,00487250556135229
0,00735729855924669
0,00986916292136047
0,0123194973694953
0,0146262078572552
0,0167181747266854
0,0185390559870497
0,0200501899334458
0,0212324120329947
0,0220866646018327
0,0226333499597344
0,0229104546493655
0,0229705496609761
0,0228768449107832
0,0226985409056117
0,0225057722319402
0,0223644722927308
0,0223315034342202
0,0224503891039157
0,0227479541229578
0,0232321262188263
0,0238910789207604
0,0246938067237168
0,0255921235004009
0,0265239711956798
0,0274178253795139
0,0281978951343264
0,0287897445226405
0,0291259181269277
0,029151138866636
0,0288266653233599
0,0281334484461051
0,0270738112645762
0,0256714848645607
0,0239699615911971
0,0220292625027775
0,0199213494519427
0,0177245314346339
0,0155173092349026
0,0133721627470601
0,0113498050319237
0,00949440278912024
0,00783019484556169
0,00635983269028132
0,00506462795203915
0,00390673202820364
0,0028331061518699
0,001780980460984
0,000684362433555105
-0,000518948740208092
-0,00188044443515757
-0,00343469611256212
-0,005194417409665
-0,00714726819630321
-0,00925473070308484
-0,0114532165038092
-0,0136573743422297
-0,0157653789548482
-0,0176658070311037
-0,0192455640242639
-0,0203982278501676
-0,0210321318916136
-0,0210775246952257
-0,0204922165684669
-0,0192652479190435
-0,0174182798388439
-0,0150045994747656
-0,0121058339948803
-0,00882665939157562
-0,00528795662187285
-0,00161899272450864
0,00205072259827182
0,0055992402065355
0,00891901508034713
0,011922270804144
0,0145445106980733
0,0167459775757881
0,018511054697014
0,0198457874096905
0,0207738706844853
0,0213315768514552
0,0215621786021081
0,0215104476856619
0,0212177780766284
0,0207183976175707
0,0200370032624984
0,0191879952961436
0,0181763114480701
0,0169996901378562
0,0156520402730092
0,014127478127991
0,0124245213690561
0,0105499131368749
0,00852158683045016
0,00637037097333087
0,00414016436348981
0,00188647152049406
-0,000326638724862243
-0,00243092005429219
-0,00435930195599345
-0,00605171895062699
-0,00746086081056528
-0,00855727830153346
-0,00933332372817967
-0,00980550160101396
-0,0100149430605661
-0,0100258851871339
-0,00992221701889573
-0,00980233078731068
-0,00977267272873184
-0,00994050806284265
-0,0104064880365201
-0,0112576265392263
-0,0125612581094954
-0,0143604618700903
-0,0166713056286391
-0,0194821036541825
-0,0227547058359096
-0,0264276616080083
-0,0304209453669424
-0,0346418053296094
-0,0389912157875698
-0,0433703801079657
-0,0476867503226074
-0,0518590955176499
-0,0558212577248946
-0,0595243692181396
-0,0629374551693615
-0,0660464956536918
-0,0688521566314857
-0,0713665083114654
-0,0736091218660144
-0,0756029664209166
-0,0773705165743385
-0,0789304297310149
-0,0802950694627409
-0,0814690460842199
-0,0824488306491581
-0,0832233861036051
-0,0837756609991099
-0,084084716541875
-0,0841282133599645
-0,0838849731276461
-0,0833373511698998
-0,0824732048725267
-0,0812873116656119
-0,0797821700346002
-0,0779681970829212
-0,07586340662205
-0,0734927041610982
-0,07088696356262
-0,068082051805402
-0,065117944002094
-0,0620380247040277
-0,0588886106038229
-0,055718663016104
-0,0525795959151999
-0,0495250364140031
-0,0466103674638409
-0,0438918827208728
-0,041425413109398
-0,0392643420370509
-0,0374570061752672
-0,0360435727190319
-0,0350525811797868
-0,0344974259938678
-0,034373123626772
-0,0346537440587373
-0,0352908840343971
-0,0362135145412301
-0,0373294484459146
-0,0385285514781226
-0,0396876705483036
-0,0406770909568417
-0,0413681739063513
-0,041641684168521
-0,0413962101719
-0,0405560180648701
-0,0390776763984476
-0,0369548428793407
-0,0342207174389671
-0,0309478292194383
-0,027245026405752
-0,0232517603940242
-0,019129980227156
-0,0150541593303449
-0,0112001452146245
-0,00773363779605269
-0,00479915166187654
-0,00251029612792597
-0,000942114814203782
-0,000126070756420006
-4,80566831659307E-05
-0,000649570738724173
-0,0018319464367617
-0,00346328405570158
-0,00538752023198379
-0,00743491151629527
-0,00943310995818683
-0,0112179822890711
-0,0126433703814427
-0,0135891040589264
-0,0139667465968667
-0,0137227619978505
-0,0128390215423673
-0,011330793986672
-0,0092425684378836
-0,00664222328849757
-0,00361416478297663
-0,000252106461545496
0,00334785625405197
0,00709329957953384
0,0109002043801981
0,014696084317568
0,0184214074887079
0,0220293921798382
0,0254844208839316
0,0287594456874328
0,0318328406894974
0,0346851865312322
0,0372964473247545
0,039643925843933
0,0417012683985787
0,0434386499168535
0,0448241184093137
0,0458259329253839
0,0464156060206677
0,0465712736871026
0,0462809716849601
0,0455454014326798
0,0443798199943455
0,0428147811167872
0,040895577278627
0,0386803726772565
0,0362371586969209
0,033639791322011
0,0309634704038352
0,028280082944925
0,0256538500307179
0,0231376879590616
0,0207706216957259
0,0185764808140552
0,0165639761238864
0,0147281133061922
0,0130527631226824
0,0115140906515781
0,0100844608830125
0,00873639386566132
0,00744614405080239
0,00619652534184168
0,00497869063050738
0,00379269303954759
0,00264679313557985
0,00155561749418558
0,000537404191742318
-0,000389323853453772
-0,00120924762350996
-0,00191346747204276
-0,00250203164710222
-0,00298543109358183
-0,00338481945103864
-0,00373085113349141
-0,00406117913642556
-0,0044168026193513
-0,00483758711019731
-0,0053573835435777
-0,00599923526850073
-0,00677117756443054
-0,00766309965821066
-0,00864505721604709
-0,00966730094083154
-0,0106621353815969
-0,0115475553949981
-0,0122324414916626
-0,0126229452000204
-0,0126295757760972
-0,0121744214932481
-0,0111979098869544
-0,0096645346944677
-0,00756705100007901
-0,00492875784498398
-0,00180363893169291
0,0017256962991978
0,00555215203063024
0,00955007982955377
0,0135825782138719
0,0175096230371277
0,0211964319652247
0,0245214536730583
0,0273834089210092
0,0297068922349982
0,0314461616152534
0,032586888723241
0,0331458006490122
0,0331683032586346
0,0327243223700699
0,031902721320229
0,0308047430733835
0,0295369762377418
0,0282043550278353
0,0269036746256905
0,0257180400160297
0,0247125752490886
0,0239316100995731
0,0233974420809102
0,0231106536133524
0,0230518559305284
0,0231846406187785
0,0234594520696954
0,0238180528208578
0,0241982395761442
0,0245384792228696
0,0247821680564147
0,0248812689075562
0,0247991442984312
0,024512473153914
0,0240122082506303
0,0233035964562324
0,0224053398792225
0,0213480205523408
0,0201719426965389
0,0189245646979607
0,0176576984377811
0,016424648102327
0,015277446156241
0,0142643230732405
0,0134275219769017
0,0128015416102081
0,012411862729411
0,012274185434101
0,0123941790100981
0,0127677221788517
0,0133815905967619
0,014214530270294
0,0152386404997315
0,0164209783141347
0,0177252884773968
0,0191137594713307
0,0205487068233553
0,021994091109627
0,0234167890967568
0,0247875526580036
0,0260816108156999
0,0272788945875505
0,028363890891966
0,0293251588742538
0,0301545676595108
0,0308463366379294
0,0313959759454446
0,0317992341113508
0,0320511606913612
0,032145383523978
0,0320736832244125
0,031825922669707
0,0313903582764129
0,0307543252466738
0,0299052535361607
0,0288319381768548
0,0275259598210637
0,0259831316756826
0,0242048394674037
0,0221991430059108
0,0199815215848128
0,0175751701304668
0,0150107869052509
0,0123258340318386
0,00956329578174718
0,0067700027273971
0,00399462867832653
0,00128549827014803
-0,00131163677460241
-0,00375568741305449
-0,00601202431637372
-0,00805384355549715
-0,00986299464487861
-0,0114302066162073
-0,0127546960101394
-0,0138431911081636
-0,0147084551146982
-0,0153674331829541
-0,0158391804651452
-0,0161427478915656
-0,0162952073078013
-0,0163099873311515
-0,0161956665032794
-0,0159553329240592
-0,015586572532556
-0,0150820953557355
-0,0144309546891376
-0,0136202627622959
-0,0126372622224148
-0,0114715794178919
-0,0101174657957649
-0,00857582947394022
-0,00685587071392349
-0,00497616185105555
-0,0029650522873197
-0,000860329424415358
0,00129187688769927
0,00343889999676058
0,0055239493758614
0,00748897832836164
0,00927781487315242
0,0108393388361467
0,0121304785918361
0,0131188080922755
0,013784548486104
0,014121817269476
0,0141390189155453
0,0138583307045873
0,0133143017797709
0,0125516476049615
0,0116223812583027
0,0105824729202236
0,00948826562676199
0,00839289592418529
0,00734297066652023
0,00637573532708676
0,00551693573075962
0,00477952626235791
0,00416331679661052
0,00365558225394838
0,00323258789082308
0,00286191558063486
0,00250541669534937
0,0021225704937538
0,00167399695326774
0,00112486229287459
0,000447925052619167
-0,000374000077071239
-0,00134633665566269
-0,00246191448170232
-0,00370105701358815
-0,0050325613651428
-0,00641547422183713
-0,00780150600597278
-0,00913787861084223
-0,0103703730797133
-0,0114463352227675
-0,0123174100735537
-0,0129418090705139
-0,0132859638800853
-0,0133254832188943
-0,0130453980248849
-0,0124397493338339
-0,0115106355939393
-0,0102668857800141
-0,00872255655961652
-0,00689546254803934
-0,00480593700054679
-0,00247598694488399
7,10452512469205E-05
0,00281026761994251
0,0057144983746175
0,00875309929920825
0,0118905473203953
0,0150849588415467
0,0182868104686211
0,0214381037489228
0,0244721986957239
0,0273144920213628
0,0298840445780534
0,0320961743785044
0,0338659344995259
0,0351122982100713
0,0357627862817541
0,0357582026610667
0,0350571021924172
0,033639603435425
0,0315101836421171
0,0286991513375177
0,0252625811733337
0,0212806092657734
0,0168541160418109
0,0120999568945262
0,00714502702809238
0,00211955431685518
-0,00284990738596281
-0,00764727024265323
-0,0121729754303352
-0,0163488559677923
-0,0201214121374223
-0,0234632310261439
-0,0263724260667374
-0,0288701307368325
-0,0309962396114998
-0,0328037362530753
-0,0343520682797698
-0,0357001146638064
-0,0368993310679894
-0,0379876516984111
-0,0389846706315537
-0,0398885258951601
-0,040674773573898
-0,0412973778720308
-0,0416917696515009
-0,0417797548332601
-0,0414758994943278
-0,0406948934421859
-0,0393593090349116
-0,0374071342121611
-0,0347984713484708
-0,031520855640885
-0,0275927531728368
-0,0230649407290296
-0,0180196351223162
-0,0125674155336181
-0,00684215371634081
-0,000994319882224411
0,00481684568629337
0,0104317234424179
0,0156986607734672
0,0204816802883604
0,024667017662082
0,0281680585669296
0,0309283784391263
0,0329227435188274
0,0341560935367249
0,0346606820078098
0,0344916865040366
0,0337217075842627
0,0324346430939356
0,0307194496111498
0,0286642840003331
0,0263514582554976
0,023853546497811
0,0212308634316033
0,0185304000873736
0,0157861675763497
0,013020775020337
0,010247964733719
0,00747575486988874
0,00470980289902739
0,00195660480427744
-0,000773816471932888
-0,00346600873855971
-0,00609815400889607
-0,00864216657871737
-0,0110647801767904
-0,013329471814098
-0,0153989812246713
-0,0172381227563952
-0,018816557163897
-0,0201111966734119
-0,021107957141559
-0,0218026419233359
-0,0222008360059685
-0,0223167965642588
-0,0221714364632376
-0,021789599160977
-0,0211969064780009
-0,0204165161134416
-0,0194661475314012
-0,0183557200986871
-0,0170858968465791
-0,0156477451791644
-0,0140236196445702
-0,0121892513523716
-0,010116905173543
-0,00777935138903532
-0,00515430423211468
-0,00222891535958907
0,000996117356744499
0,00450325256476839
0,00825599341805035
0,0121982448162751
0,0162553047967421
0,0203365164879047
0,0243394611301748
0,0281554321768971
0,0316758079972109
0,0347988474037301
0,0374363769485098
0,0395198273077253
0,0410051100456681
0,0418759036730708
0,0421450334742757
0,0418537740877805
0,0410690657425062
0,0398788012552212
0,0383854977656126
0,0366988017629496
0,0349273769786513
0,0331707835908991
0,0315119686713
0,030010950466758
0,0287001954335787
0,0275820631597704
0,0266285398764957
0,0257833081397501
0,0249660219437912
0,0240784869965825
0,0230122984800256
0,0216573749846218
0,0199107564964351
0,0176850120141185
0,0149156304939304
0,0115668452841189
0,00763546114216723
0,00315240504560151
-0,00181810460193735
-0,00718169476896718
-0,0128190306980814
-0,0185926612276067
-0,0243549918035661
-0,029956781756444
-0,0352555322813623
-0,0401231522528818
-0,0444523586349422
-0,0481613808655697
-0,0511966846923619
-0,0535335981369811
-0,0551748964330337
-0,0561475691012037
-0,0564981366683695
-0,0562869945845016
-0,0555823283255826
-0,0544541609206923
-0,0529690610070044
-0,0511859592532494
-0,049153401106012
-0,046908415432054
-0,0444770155115425
-0,041876186189702
-0,0391170640392849
-0,0362089000267317
-0,0331633176054398
-0,0299983508697097
-0,0267417703470574
-0,0234332763332281
-0,0201252547690627
-0,0168819377497955
-0,0137769758512803
-0,0108895966323746
-0,0082996765599139
-0,00608217697472777
-0,00430147592434003
-0,00300615795637361
-0,00222479928214472
-0,00196320730622509
-0,00220344780284921
-0,0029048311188277
-0,00400684551008782
-0,00543383822323411
-0,00710107113424548
-0,00892163459048845
-0,0108136049699827
-0,0127067887444632
-0,014548413892898
-0,0163072080772876
-0,0179754361461936
-0,0195686461023484
-0,0211230772867492
-0,0226908989300959
-0,024333651936851
-0,0261144429140854
-0,0280895704546014
-0,030300336825209
-0,0327658058272758
-0,0354772078412844
-0,0383945700564734
-0,0414459734593435
-0,04452962293105
-0,0475186809658652
-0,0502685791826192
-0,0526263052414187
-0,0544409846562852
-0,0555749527312587
-0,0559144522841934
-0,0553791032954637
-0,0539293705343419
-0,0515713981581583
-0,0483587745651897
-0,0443910205643722
-0,0398088405278462
-0,034786419772008
-0,0295212725907825
-0,0242223268880159
-0,0190970594514124
-0,0143385613771584
-0,0101134120095683
-0,00655117343961052
-0,00373619270749598
-0,00170222642194671
-0,000430197049606278
0,000150831762654953
0,000159594436349901
-0,000244185655642
-0,000868845253591711
-0,0015014339780626
-0,00191925779638675
-0,00190157767898765
-0,00124075847984758
0,000247758596714909
0,00271716916839955
0,00628306844076487
0,0110194671104652
0,0169571014712752
0,0240839265984109
0,0323475502719952
0,0416592632984162
0,0518992544115314
0,0629225671188254
0,0745653607399181
0,0866510746935854
0,0989961578095449
0,111415105456526
0,123724638167541
0,135746947745532
0,147312022767828
0,158259138479639
0,168437651509387
0,177707274876419
0,185938022647802
0,193010007542507
0,19881325159672
0,203247633787244
0,206223054088886
0,207659845959549
0,207489423582171
0,20565511065414
0,202113067426947
0,196833214251592
0,189800044019667
0,181013222346676
0,170487891774193
0,158254622460996
0,144358983986118
0,128860747855298
0,111832764922483
0,0933595932443679
0,0735359773291624
0,0524652973156265
0,0302581149758457
0,00703094187246709
-0,0170946565290316
-0,0419925279493565
-0,0675319080664593
-0,0935768756577685
-0,11998530203576
-0,146607352837007
-0,173283644898237
-0,199843203646497
-0,226101404496444
-0,251858112524244
-0,276896255538403
-0,300981074165815
-0,323860286589384
-0,345265383535882
-0,364914230125697
-0,382515095329398
-0,397772158161206
-0,410392454779292
-0,420094136015477
-0,426615805447026
-0,42972660992772
-0,429236664289953
-0,425007316850015
-0,416960709397984
-0,405088060812343
-0,389456112277445
-0,370211217388571
-0,347580642939966
-0,321870763970058
-0,29346198493532
-0,26280039023972
-0,23038631192907
-0,196760188530582
-0,162486264117376
-0,128134827941942
-0,0942638105551571
-0,0614006222550757
-0,0300251368504775
-0,000554684476952062
0,0266681780278107
0,0513844973191357
0,0734239219161942
0,0927056566207297
0,109235397233916
0,123098506046432
0,134449908072986
0,143501375156282
0,150507006513934
0,155747799989169
0,159516232327368
0,162101728033785
0,163777798379961
0,164791483045731
0,16535553873384
0,165643606774833
0,165788371859188
0,165882513508214
0,165982066597811
0,166111660702675
0,166271010364901
0,166441985520823
0,166595604569948
0,166698358626958
0,166717386784727
0,166624167628005
0,166396558144458
0,166019182632645
0,165482336235084
0,164779706617631
0,163905321732318
0,162850193497191
0,16159914246122
0,16012825709608
0,158403367321663
0,156379802894091
0,154003573874003
0,151213964957203
0,1479473911876
0,144142232319412
0,139744258244529
0,134712187476832
0,129022890615794
0,122675763407938
0,115695848247876
0,108135373993708
0,100073504093186
0,0916142221794483
0,0828824310111466
0,0740184829192145
0,0651714863018654
0,0564918330859529
0,0481234585543593
0,0401963723768914
0,0328199860555212
0,026077708488378
0,0200231922319982
0,0146784952190358
0,0100342852143059
0,00605206757603971
0,00266827192325537
-0,000200099174044614
-0,00264866668635672
-0,00477820422313023
-0,00668703165106857
-0,00846381093910998
-0,010181248939055
-0,0118911427228828
-0,0136211032396471
-0,0153731698887619
-0,0171243912304152
-0,0188293054944179
-0,0204241190654452
-0,0218322614291162
-0,0229708996850083
-0,0237579313580175
-0,0241189452692702
-0,0239936484594747
-0,0233413016770749
-0,0221447831685424
-0,0204130044906745
-0,018181524904218
-0,0155113433518048
-0,0124859791405988
-0,00920707439700533
-0,00578885410161164
-0,00235185551706098
0,000983617351947539
0,00410384992195431
0,00690744608540247
0,00931005180967594
0,0112477819644004
0,0126791664872846
0,0135855509691582
0,0139700075740889
0,0138549251344851
0,0132785432696694
0,0122907669136951
0,0109486392860526
0,00931186023130699
0,00743871293082736
0,0053827079833912
0,00319017506373319
0,000898936171543454
-0,00146191031275189
-0,00387116947796672
-0,00631386214859701
-0,00877891350038454
-0,0112565125096483
-0,0137354582496624
-0,0162008001049878
-0,0186320409195061
-0,0210021089825692
-0,023277222912632
-0,0254176809432807
-0,0273795117944379
-0,0291168372414635
-0,0305847249208885
-0,0317422605416904
-0,0325555460108742
-0,0330003359588594
-0,033064058921842
-0,0327470274869909
-0,0320627182055732
-0,031037089469416
-0,0297069952624727
-0,028117836029085
-0,0263206568162819
-0,0243689507981105
-0,0223154488171909
-0,0202091707634293
-0,0180929832188947
-0,0160018532213848
-0,0139619158792866
-0,0119903912463988
-0,0100963016333046
-0,00828186282042311
-0,00654435916835299
-0,00487826964529818
-0,00327739347111565
-0,00173673207918999
-0,00025391742428247
0,00116996823151128
0,0025302647920881
0,00381930300613003
0,00502759311029208
0,00614548492233999
0,00716509405623692
0,00808225359024139
0,00889824052237266
0,00962104303321826
0,0102659765918224
0,0108555203796266
0,0114183242497552
0,0119874227774855
0,0125977783170805
0,0132833507812151
0,0140739503413651
0,0149921642613017
0,0160506566716618
0,0172501189510863
0,0185780999377371
0,0200088735443701
0,0215044128558078
0,0230164424940755
0,0244894438974937
0,0258644002072167
0,0270829969213352
0,0280919480190658
0,0288470993330053
0,0293169733770249
0,0294854616508751
0,0293534379646008
0,0289391535460303
0,0282773738148511
0,0274173189227331
0,0264195664321282
0,0253521564727117
0,0242862003813329
0,0232913282750885
0,0224313167249414
0,0217602148658224
0,0213192386015888
0,0211346330410206
0,0212166196305067
0,0215594544346187
0,0221425357188441
0,0229324200670376
0,0238855431839725
0,0249513990669377
0,0260759120454975
0,027204740710248
0,028286279188168
0,0292741658754723
0,0301291674148315
0,0308203703027812
0,0313256776550891
0,0316316683043838
0,0317329244262874
0,0316309685083294
0,0313329685416895
0,0308503714138535
0,0301976098764011
0,0293910008318302
0,0284479158003088
0,0273862626650497
0,0262242757073034
0,0249805727535143
0,0236744075142863
0,0223260244380636
0,0209570140278764
0,0195905687562704
0,0182515525294324
0,016966318230472
0,0157622356642207
0,0146669233236312
0,0137072087975367
0,0129078715751934
0,0122902461143669
0,0118707805699147
0,0116596564247658
0,0116595760185802
0,0118648188001889
0,0122606537801121
0,012823176215574
0,0135196124209727
0,0143091092767486
0,0151439961110684
0,0159714777180874
0,016735689893918
0,0173800244535285
0,0178496106078586
0,0180938250659041
0,0180686953711858
0,0177390606742439
0,0170803619710541
0,0160799500187101
0,0147378234066494
0,0130667407806297
0,0110916885338372
0,00884872631611621
0,00638327482153468
0,00374795042563191
0,00100008605569614
-0,00180089606360479
-0,00459607933053393
-0,00732943373971135
-0,00994981503205561
-0,0124124427845696
-0,0146797603858821
-0,0167216328313995
-0,0185148980489332
-0,0200423490229796
-0,0212912817012622
-0,0222517918139059
-0,0229150370263242
-0,0232716950046645
-0,0233108402364749
-0,0230194319567363
-0,0223825535739647
-0,0213844740341881
-0,0200105190697965
-0,0182496523180948
-0,0160975809555629
-0,0135601261647484
-0,0106565433320387
-0,00742244696703244
-0,00391199553934657
-0,000199023785384812
0,00362312632596144
0,00744323369293215
0,0111353310412814
0,0145632646359323
0,0175864771866783
0,0200666944541592
0,0218751003640443
0,0228995193080735
0,0230510948542023
0,0222699653739837
0,0205294897624885
0,0178386674709215
0,0142425200535583
0,0098203469486174
0,00468192468321996
-0,00103812665886867
-0,00718744591030692
-0,01360402497124
-0,0201247401274194
-0,0265937317213163
-0,0328700551706328
-0,038834083513218
-0,0443922396685529
-0,0494797674372048
-0,0540614031596831
-0,0581299723464322
-0,0617030941605243
-0,0648183184909877
-0,0675271340968023
-0,0698883630143078
-0,0719614903736716
-0,0738004678884653
-0,0754484752416798
-0,0769340316604253
-0,0782687284437703
-0,079446712711369
-0,0804459051222871
-0,0812307920742391
-0,0817565074807144
-0,0819738205201088
-0,0818345811581013
-0,0812971491397604
-0,0803313455923799
-0,0789225171145075
-0,0770743849803738
-0,074810459081696
-0,0721739179345393
-0,0692259820412308
-0,0660429276819437
-0,0627119922211737
-0,0593265023301994
-0,055980607429072
-0,0527640191026675
-0,0497571429600512
-0,0470269448349711
-0,0446238232004922
-0,0425796709297802
-0,0409072100771327
-0,0396005817187846
-0,0386370774402468
-0,0379798172663164
-0,0375811167390556
-0,0373862475871568
-0,037337284012259
-0,0373767398015455
-0,0374507379682305
-0,0375115102755248
-0,0375190933149087
-0,0374421643870125
-0,0372580375823854
-0,0369519117277168
-0,0365155215811206
-0,0359453873348096
-0,0352408821476592
-0,0344023417859689
-0,033429424915862
-0,0323198992038754
-0,0310689805405161
-0,0296692948868199
-0,0281114695691289
-0,0263852986758724
-0,0244813707102354
-0,0223930003888934
-0,0201182741116289
-0,0176620026281026
-0,0150373759507113
-0,0122671343765595
-0,00938410403177619
-0,00643099290381188
-0,00345940018959734
-0,000528053609702121
0,00229964858485475
0,0049586565402784
0,00738566544725571
0,00952267035530898
0,0113204386095098
0,0127416554245698
0,0137635117663065
0,0143795342214234
0,0146005019994971
0,0144543536460998
0,0139850516033821
0,0132504420055558
0,0123192152779932
0,0112671355177771
0,0101727588860158
0,00911289963625452
0,00815812412891936
0,00736855657820385
0,00679026489545956
0,00645246170928181
0,00636570652845269
0,00652123327302574
0,00689145709914306
0,00743164024685701
0,00808262350536562
0,00877446267023578
0,00943075252467124
0,00997337813391816
0,0103274073268568
0,0104258307187275
0,0102138667844235
0,00965257832910893
0,00872159104025959
0,00742076143884145
0,00577070651198886
0,00381217617107013
0,00160431786190832
-0,000778054223665815
-0,00324801869904781
-0,00571072654107001
-0,00806796399049384
-0,0102228495389851
-0,0120844184415928
-0,0135718651252394
-0,0146182430484098
-0,0151734603256594
-0,0152064546045786
-0,0147064789224658
-0,0136834782970186
-0,0121675816530644
-0,0102077729270629
-0,00786983704611154
-0,00523369994362263
-0,00239029658439488
0,000561892419018978
0,00352049559067114
0,0063829630747886
0,00905021348872647
0,0114301045526219
0,013440630460929
0,0150127621227273
0,0160928583567854
0,0166445865849364
0,0166503006880111
0,0161118320842164
0,0150506586720612
0,0135074261408707
0,0115408083643783
0,00922570906404296
0,00665082619018588
0,00391562360049753
0,0011267810898985
-0,00160577745407491
-0,00417314871518789
-0,00647185068226526
-0,00840817904727523
-0,00990232181191643
-0,0108920266283574
-0,0113356184630277
-0,0112141807512241
-0,0105327419155916
-0,00932035059739685
-0,00762897579720605
-0,00553122989858509
-0,00311697988084905
-0,000488980777684589
0,00224226901513223
0,00496419343335547
0,0075680233397942
0,00995456960055617
0,0120395456327074
0,0137581134400726
0,0150683622216099
0,0159534845896117
0,0164224895229693
0,0165093791846853
0,016270813178529
0,0157823823403899
0,0151337079283561
0,014422664270182
0,0137490872990127
0,0132083727091325
0,012885381953553
0,0128490600603865
0,0131481263856154
0,0138081302109944
0,0148300718117194
0,0161906823532868
0,017844340185365
0,0197264851273968
0,0217582847692309
0,023852215831341
0,025918156384349
0,0278695467108029
0,0296291711875686
0,0311341417072559
0,0323397231779782
0,0332217293621803
0,0337773262864747
0,0340242024308054
0,0339981904718359
0,033749544645984
0,0333381813210991
0,0328282697562877
0,0322826087903809
0,0317572392426363
0,0312967198673976
0,0309304384514369
0,030670243609961
0,0305095740685472
0,0304241396752394
0,0303740822464913
0,0303074250878441
0,0301645175639919
0,0298831038970463
0,0294035997380566
0,0286741495445481
0,0276550629138756
0,0263222861813057
0,0246696513579292
0,0227097500608338
0,0204733960332594
0,0180077559545198
0,0153733344183884
0,0126400862195226
0,00988299029200775
0,00717745016722037
0,004594883916455
0,00219883346821593
4,18630157962361E-05
-0,00183656459583888
-0,00341113793553804
-0,0046706747006121
-0,00561711943376058
-0,00626373095667958
-0,00663268625555153
-0,0067523599050331
-0,00665454405568826
-0,00637185444743845
-0,00593552624854354
-0,00537374520150872
-0,00471059145851323
-0,00396560315684046
-0,00315390163250186
-0,00228676672489527
-0,00137251386382736
-0,000417507527178629
0,000572851069202012
0,00159330206535542
0,00263817341647256
0,00370115064297182
0,00477537296043467
0,005853809168957
0,00692982496485991
0,00799782440595916
0,00905383533579556
0,0100959129711555
0,0111242569103408
0,0121409719612079
0,0131494482853561
0,0141533861928922
0,0151555397749939
0,0161562958456929
0,0171522355233014
0,0181348416115804
0,0190895137581407
0,0199950349925489
0,0208235993071162
0,021541463665111
0,0221102336840756
0,0224887354748904
0,0226353721704287
0,0225108176456523
0,0220808660596811
0,0213192371337181
0,0202101349828481
0,0187503727219119
0,0169509042805736
0,0148376459227664
0,0124515189253856
0,00984769727549283
0,00709409558098817
0,00426917853173562
0,00145921085405651
-0,00124490652511358
-0,00375105353215933
-0,00596939757704723
-0,00781583360674431
-0,00921521737571635
-0,0101042734848923
-0,0104340844481352
-0,0101720920032313
-0,00930356484237122
-0,00783250633795235
-0,00578199095381745
-0,00319392895992247
-0,00012826667357561
0,00333836485441694
0,0071145342859716
0,0110964021091172
0,0151705849478501
0,0192174427293076
0,0231147214919612
0,0267414634010523
0,0299820724510016
0,0327304015501961
0,0348937068063035
0,0363963006600687
0,0371827296630026
0,0372203072745685
0,0365008483923806
0,0350414807012935
0,0328844475017735
0,0300958654321149
0,02676345542924
0,0229933225596488
0,0189059157325586
0,0146313474792997
0,0103042929522252
0,00605871287987217
0,00202265523143479
-0,00168661603821348
-0,00496693904001341
-0,007734828913124
-0,00992816695757565
-0,0115079153500291
-0,0124588255718786
-0,0127891635167907
-0,0125295231142191
-0,0117308399023177
-0,0104617440997095
-0,00880540838292103
-0,00685604913517145
-0,00471523292288453
-0,00248812488645158
-0,000279795727493009
0,001808317637977
0,00368172278309035
0,00525589492006604
0,00645896403640425
0,00723402192205711
0,0075410039669545
0,00735809596748534
0,00668261051054931
0,00553127387441418
0,00393986587023716
0,00196216430879971
-0,000331835397582021
-0,00285842601962733
-0,00552338191015133
-0,00822575693366717
-0,01086215510531
-0,0133312945998599
-0,0155386446650723
-0,0174008854169853
-0,0188499270897818
-0,0198362314295581
-0,0203312052876594
-0,020328484774612
-0,0198439951436341
-0,0189147523914231
-0,0175964611486577
-0,0159600523671723
-0,0140873856165791
-0,0120664068061057
-0,00998609620228714
-0,00793155888087271
-0,00597959775536126
-0,00419506829712096
-0,00262824706537147
-0,00131335885071304
-0,000268307411427843
0,000504448350924391
0,0010160276192684
0,00128850608576751
0,00135183268453023
0,00124060576320912
0,000991025770340605
0,000638305827978053
0,000214757878988036
-0,000251312970154154
-0,000735870865561918
-0,00121863313592418
-0,00168193188270977
-0,00210918248721594
-0,00248323506427199
-0,0027848999583754
-0,00299191968601103
-0,003078608802687
-0,00301630502478894
-0,00277467758730126
-0,00232383250862962
-0,0016370505707635
-0,000693903804155843
0,000516569727343709
0,00199298715231347
0,00371938984874508
0,00566397210519176
0,0077790064491816
0,0100020998900895
0,0122587939749199
0,0144663933232527
0,0165387847768809
0,0183919046852345
0,0199494358017378
0,0211482757542879
0,0219433205704603
0,0223111498240659
0,0222522811664207
0,0217917741685063
0,0209780964419153
0,0198803068397626
0,0185837483244017
0,0171845644291485
0,0157834473857218
0,014479084864991
0,0133617911596973
0,0125077865944708
0,0119745287826194
0,0117974072954437
0,0119879983029403
0,0125339485232575
0,0134004298424808
0,014532988328794
0,0158615137579899
0,0173049856431767
0,0187766137481981
0,0201889866601328
0,021458869600346
0,0225113478779823
0,0232830886375096
0,0237245827455465
0,0238013220885284
0,0234939567389049
0,022797553872196
0,0217201401022363
0,0202807471875644
0,0185071962298132
0,0164338481424835
0,0140995208777627
0,0115457308380168
0,00881536228981653
0,00595181018122097
0,00299858422721648
-6,89399434266639E-07
-0,00300197377499596
-0,00596036753602986
-0,00882963847926064
-0,0115618896592786
-0,0141074877838442
-0,0164153564268468
-0,0184337002442996
-0,0201111843226655
-0,0213985484920968
-0,0222505933452576
-0,0226284359559792
-0,0225019015662251
-0,0218518949323543
-0,020672583041666
-0,0189732203501479
-0,0167794586578134
-0,0141340057326656
-0,0110965286747579
-0,00774273809710869
-0,00416263530931043
-0,00045795422873346
0,00326112017272982
0,00687982753842922
0,0102831306215231
0,0133602319091599
0,0160090813412811
0,0181406388141128
0,0196826601726403
0,0205827950329959
0,0208108183899916
0,020359863845868
0,0192465818280985
0,0175102078507872
0,015210589667067
0,0124252836623789
0,00924588572486383
0,00577380611087896
0,00211572826699596
-0,00162099408265189
-0,00533275003692611
-0,00892366285302567
-0,0123089623747591
-0,0154175886221574
-0,0181939324898232
-0,0205986796072542
-0,0226087831142954
-0,0242166458375085
-0,0254286381366499
-0,0262631113571075
-0,0267480863360361
-0,0269188009851313
-0,0268152911101333
-0,0264801560141686
-0,0259566277853007
-0,025287023904762
-0,0245116207410143
-0,0236679444815288
-0,0227904396007953
-0,0219104460115658
-0,0210563966249041
-0,0202541382414766
-0,0195272805149325
-0,018897489206318
-0,018384659259244
-0,0180069279187289
-0,0177805153427982
-0,0177194069862135
-0,0178349157235698
-0,0181351798847333
-0,0186246644353719
-0,0193037354988275
-0,0201683732068762
-0,0212100751931294
-0,0224159843412506
-0,0237692516928502
-0,0252496211005041
-0,026834198805845
-0,0284983511086206
-0,0302166587789828
-0,0319638494730511
-0,0337156300769546
-0,0354493497645307
-0,0371444409668155
-0,0387826079781264
-0,0403477594722981
-0,0418257092107786
-0,0432036958394533
-0,0444697950715406
-0,045612313188804
-0,0466192576294818
-0,0474779772578115
-0,048175051398308
-0,0486964836193287
-0,0490282253201567
-0,0491570180881902
-0,0490715059558655
-0,0487635329106814
-0,0482295111856713
-0,0474717255328194
-0,0464994307058123
-0,0453296055128229
-0,043987247506913
-0,0425051266215113
-0,0409229613309601
-0,0392860333846435
-0,0376433119468298
-0,0360452096241197
-0,0345411358139288
-0,0331770420327863
-0,0319931654075495
-0,0310221679144588
-0,0302878397476652
-0,0298044870194484
-0,0295770605568782
-0,0296020094359492
-0,029868767056283
-0,0303617067296493
-0,0310623456660429
-0,0319515378196125
-0,0330113826491987
-0,0342265915595779
-0,0355850970139336
-0,0370777585313963
-0,038697109619253
-0,0404351923165712
-0,0422806317873802
-0,0442152017184445
-0,0462102116682133
-0,0482231006433392
-0,0501946399239067
-0,0520471283549474
-0,0536839044528796
-0,0549904050159104
-0,0558368764690205
-0,0560827030853766
-0,0555821680329255
-0,0541913225903789
-0,0517755195368632
-0,0482170808691451
-0,0434225272238627
-0,037328802607373
-0,0299079847674232
-0,0211700756298032
-0,0111636099601904
2,60078699436424E-05
0,0122803440658079
0,0254536754881868
0,0393801899597735
0,0538820791272935
0,0687778752183
0,0838903573832651
0,0990533865052462
0,114117117606831
0,128951179281706
0,143445588268725
0,157509369080181
0,171067055859943
0,184053448032263
0,196407155382136
0,208063587034168
0,218948101308804
0,228970033450656
0,238018255024951
0,245958797223403
0,252634900407311
0,257869648232921
0,261471123992108
0,263239808188355
0,262977738602683
0,260498794151191
0,255639355460576
0,248268547659263
0,238297288612471
0,225685447375493
0,210446556363323
0,192649705164551
0,172418458881563
0,14992687168193
0,125392888295115
0,0990696244258928
0,0712351755630357
0,0421817098163679
0,0122046459979652
-0,0184073001144356
-0,0493804986394207
-0,0804626502891979
-0,111426505021189
-0,142070875697973
-0,172218989592682
-0,201714437756814
-0,230415177936323
-0,258186205861912
-0,284891620344149
-0,310386861533597
-0,334511895254832
-0,35708605039373
-0,377905096294407
-0,396740982295433
-0,41334446444899
-0,42745062974555
-0,438787111562395
-0,447084587099237
-0,452088972583937
-0,453574596997435
-0,451357548950353
-0,445308359377006
-0,43536320632872
-0,421532904791765
-0,403909068099653
-0,382666989010596
-0,358064976561429
-0,330440086586288
-0,300200386158281
-0,267814082424251
-0,233796013026839
-0,198692129213749
-0,163062697100085
-0,12746499351774
-0,0924362795954555
-0,0584777996018132
-0,0260404791112928
0,00448710831591582
0,0327880651489399
0,0586234870952465
0,0818356254242943
0,102347893593423
0,120161855172838
0,135351452392378
0,148054837059572
0,15846424527279
0,166814412984843
0,173370061144012
0,178412988033315
0,182229294505162
0,185097237573456
0,187276161938978
0,188996900187253
0,190453963148134
0,191799764570276
0,19314104097195
0,194537540328075
0,196002964143559
0,19750805864593
0,198985664693623
0,200337455298544
0,201442017427108
0,202163874280914
0,2023629988962
0,201904342879512
0,200666898126467
0,198551826501968
0,195489233594354
0,191443227449533
0,186414989754414
0,180443691850951
0,173605206238906
0,16600868963474
0,157791238873319
0,14911093818199
0,140138717743996
0,131049521710496
0,122013332742967
0,113186615283228
0,104704718656205
0,0966757238585079
0,0891761270552488
0,0822486334972931
0,0759021951282062
0,0701142727532384
0,0648351496781148
0,0599939790944553
0,0555061228040231
0,0512812436373669
0,0472315558013474
0,0432796215432421
0,0393651111306231
0,0354500151349838
0,0315219090539809
0,0275950129665876
0,0237089532254209
0,019925307226742
0,0163221831145031
0,0129872408318115
0,0100096871404483
0,00747186483527572
0,00544109795523641
0,00396244622280609
0,0030529629692429
0,00269794507530375
0,00284951834018367
0,00342772777314589
0,00432411266085523
0,00540755538033604
0,00653201568204768
0,0075456125429068
0,00830040571875158
0,00866216780725019
0,00851943027908804
0,00779113452918234
0,00643231824870604
0,0044374108088279
0,00184088784306519
-0,00128476895802751
-0,00483366098619591
-0,00867327680159952
-0,0126530154601544
-0,0166138106748226
-0,020398163094028
-0,0238598675011354
-0,0268727561037298
-0,02933786489612
-0,0311885597695405
-0,032393321605337
-0,0329560714902134
-0,0329141035736795
-0,0323338689865852
-0,0313050059076867
-0,0299331268157338
-0,0283319459818069
-0,0266153539495349
-0,0248900208599639
-0,023249040775133
-0,0217670220288468
-0,0204968943137881
-0,019468553842556
-0,018689316438049
-0,0181460073901945
-0,0178083975477092
-0,0176336062498239
-0,0175710392055165
-0,0175674157938489
-0,017571464554853
-0,0175379237144648
-0,0174305686359038
-0,0172240913239594
-0,016904768667726
-0,0164699659558604
-0,0159266210192145
-0,0152889343231365
-0,0145755457213992
-0,0138065061354114
-0,0130003514855494
-0,0121715586201729
-0,0113286127921068
-0,010472849111156
-0,00959815312421515
-0,00869152541312529
-0,0077344387535722
-0,00670485005047537
-0,00557967774622629
-0,00433752189619127
-0,00296139010721217
-0,00144119782194375
0,000224165741320544
0,00202537727007003
0,00394194776123745
0,00594228808354698
0,00798458329404267
0,0100184323177409
0,0119871599287834
0,0138306663018154
0,0154886476051396
0,0169040001985143
0,018026211241522
0,0188145395540884
0,019240801577647
0,0192915971270399
0,0189698370089787
0,018295468153473
0,0173053302881276
0,0160521200219749
0,0146024820923678
0,0130342920079915
0,011433237774793
0,00988884906216079
0,00849015809027782
0,00732120563391773
0,00645662570349854
0,0059575517175063
0,00586808358753115
0,00621253796225299
0,00699367244779407
0,00819202942826737
0,00976648762867645
0,0116560424083774
0,0137827624885401
0,0160557959058512
0,0183762264274495
0,020642518758495
0,0227562416691314
0,0246277271438989
0,0261813141634448
0,0273598397976228
0,0281280781454457
0,0284748878005993
0,0284139075482295
0,0279827329173954
0,0272406066541017
0,0262647569781807
0,0251456110756863
0,0239811904934763
0,0228710535820441
0,0219101830468505
0,0211832210381823
0,0207594292878221
0,0206886991205386
0,0209988595487522
0,0216944368476135
0,0227569133042402
0,0241464244984706
0,0258047320018235
0,0276592198841117
0,0296275958584768
0,031622936557277
0,033558704395613
0,0353533814432103
0,0369344117976647
0,0382412139580386
0,0392271123601032
0,039860134874717
0,0401227220819137
0,0400104859210816
0,0395302318526096
0,038697513365226
0,0375340158131091
0,0360650659151246
0,0343175340350236
0,0323183414939921
0,0300937098376316
0,0276692003036
0,0250704980942051
0,0223248063872536
0,0194626379668348
0,0165197355556572
0,0135388212698512
0,0105708746626358
0,00767566852070364
0,00492135004894143
0,00238293781805247
0,000139704974491896
-0,00172847183573114
-0,00314561028090357
-0,00404468188159471
-0,00437287065817879
-0,00409661818181393
-0,00320602531655575
-0,00171819981137128
0,000320806489628414
0,00283573994682262
0,00572372247606885
0,00885768789219433
0,0120915616802579
0,0152669322898503
0,0182208399024679
0,020794210818158
0,0228404005093378
0,0242332819168933
0,0248743306426878
0,024698215004874
0,0236764928988615
0,0218191424523066
0,0191738005246856
0,0158227412724887
0,0118777844863734
0,00747346834352948
0,00275894268869845
-0,0021108722208041
-0,00698426706533054
-0,0117212639976232
-0,0162011124087861
-0,0203282734983417
-0,0240365193779222
-0,0272909107006345
-0,0300875707567022
-0,0324513320689642
-0,0344314820184345
-0,0360959658760291
-0,0375245092675175
-0,0388011902475043
-0,040007019253433
-0,0412130717601979
-0,0424746651168723
-0,0438269824610094
-0,0452824299677681
-0,0468298782391954
-0,0484357948509317
-0,0500471339112504
-0,0515957205160204
-0,0530037626197588
-0,0541900475780839
-0,055076340576896
-0,0555934996301872
-0,0556868562129998
-0,0553204784347529
-0,0544800289815724
-0,0531740448578672
-0,0514335908372229
-0,0493103634970743
-0,0468734379085297
-0,0442049456290711
-0,0413950433604196
-0,0385365715242332
-0,035719808655481
-0,0330277013340961
-0,0305318934351217
-0,0282897983293941
-0,0263428607454298
-0,0247160500691101
-0,0234185231707636
-0,0224453013896646
-0,0217797309863334
-0,0213964453291689
-0,0212645241707139
-0,0213505517699641
-0,021621309825532
-0,0220458990501902
-0,0225971584653658
-0,0232523361776677
-0,0239930508141503
-0,0248046601645519
-0,0256752150379494
-0,0265942156402083
-0,0275514009315897
-0,0285357871714661
-0,0295351317588379
-0,030535936876856
-0,0315240310017415
-0,0324856834443382
-0,0334091269950463
-0,0342862956778201
-0,0351145367443243
-0,0358980346670965
-0,0366486936683887
-0,0373862648210221
-0,0381375712894744
-0,0389347750068237
-0,0398127315953388
-0,0408055872959936
-0,0419428709139197
-0,0432454143469768
-0,0447214875933418
-0,0463635510238173
-0,0481460052724176
-0,0500242571613349
-0,0519353224589261
-0,0538000605251677
-0,0555269927117264
-0,0570175086900028
-0,0581721265865383
-0,0588973575846945
-0,0591126454584081
-0,0587568154694576
-0,0577934804122333
-0,0562149150946376
-0,0540440202111482
-0,0513341439573302
-0,0481667026105821
-0,0446467246582753
-0,0408966205543458
-0,0370486355851655
-0,0332365620987136
-0,0295873580210187
-0,0262133339346447
-0,023205528755734
-0,0206287972296223
-0,0185189891385241
-0,01688242269912
-0,0156976588125371
-0,0149193860753527
-0,0144840464812669
-0,0143166847343698
-0,0143384033286925
-0,0144737600542034
-0,0146574583439255
-0,0148397524241942
-0,0149901118151766
-0,0150988519773602
-0,0151766248222825
-0,0152518573048799
-0,0153664106883896
-0,0155698907572941
-0,0159131562454328
-0,0164416389894169
-0,0171890994812481
-0,018172395467986
-0,0193877440678377
-0,0208088191347494
-0,022386858565022
-0,0240527764313886
-0,0257210986854748
-0,027295384369979
-0,0286746704306596
-0,0297603975537292
-0,0304632430383327
-0,0307093059771051
-0,0304451567305446
-0,0296413694715779
-0,0282942926326446
-0,0264259644043752
-0,0240822349639822
-0,0213293002354828
-0,0182489716185445
-0,0149330929122471
-0,0114775636180155
-0,00797643476276105
-0,00451651103526494
-0,00117282648109711
0,00199473174915252
0,00494348624455618
0,00764866819643202
0,01010281165468
0,0123139983714766
0,0143031828537667
0,0161008756136975
0,0177434830947964
0,0192695964015712
0,0207164912631358
0,0221170541124365
0,0234972904012241
0,0248745084090313
0,0262562114866022
0,0276396795078882
0,0290121802401748
0,0303517253855858
0,0316282742489937
0,0328052885098517
0,033841551213442
0,0346931776920104
0,0353157613063652
0,0356666086365063
0,0357070239781837
0,0354046000248402
0,0347354603605447
0,0336863814371988
0,0322567000772697
0,0304598913520745
0,0283246855448431
0,0258955863713906
0,0232326594767168
0,020410482961095
0,0175161910384891
0,0146465966135657
0,0119044452944948
0,00939392697322643
0,00721564510152456
0,00546131082934795
0,00420848190498642
0,00351569803042213
0,00341837006560965
0,00392575706587753
0,00501931213340451
0,00665259778624753
0,00875286900732972
0,011224304736558
0,0139527455190242
0,0168116765371841
0,0196690916819926
0,0223947951459083
0,0248676499963866
0,0269822735222139
0,0286547089753774
0,0298266713944755
0,0304680668739847
0,0305776122573407
0,0301815256811869
0,0293304059613651
0,0280945582099709
0,026558142497365
0,0248126115860584
0,022949954991058
0,0210562752996129
0,0192061879132703
0,0174584599936917
0,0158531948233943
0,0144107334457025
0,0131322979460172
0,0120022528731617
0,0109917259075861
0,0100632177105209
0,00917575350518962
0,00829009191681825
0,00737351289706871
0,00640375524184437
0,00537176057282105
0,00428299660225847
0,00315726731557039
0,00202705902708718
0,000934606178358288
-7,20229676013378E-05
-0,000943433405808766
-0,00163356557925037
-0,002104065820501
-0,0023279506298673
-0,00229222106390342
-0,00199918558069069
-0,00146637335489779
-0,000725053635334452
0,00018249238735074
0,00120668475867396
0,00229499020788909
0,00339649071320998
0,00446624862284879
0,00546906465985651
0,00638228585590366
0,00719741294028499
0,00792037197771016
0,00857044197083634
0,00917795662174832
0,0097810124666446
0,0104215064451203
0,0111408852176126
0,0119760108400895
0,012955530983207
0,0140970886643458
0,0154056219054653
0,016872896230146
0,0184782929902514
0,02019075580217
0,0219716874536758
0,0237785009829928
0,0255684695213149
0,0273024953220841
0,028948431143156
0,030483635183464
0,031896519118421
0,033186949547306
0,0343654764212038
0,0354514766940199
0,0364704064548203
0,037450440116578
0,0384188328265742
0,0393983668373714
0,0404042321012437
0,0414416471641052
0,0425044531257866
0,0435748183237036
0,0446240838229245
0,0456146702020457
0,0465028650152785
0,0472422272746927
0,0477872880961617
0,0480972004852021
0,0481389983180562
0,0478901639055886
0,0473402711018073
0,0464915600829345
0,045358402069262
0,043965717663566
0,0423465111942645
0,0405387662871134
0,038582007200191
0,0365138608853318
0,0343669536204156
0,032166443659502
0,0299284308101568
0,0276594008130941
0,0253567645333218
0,0230104481810528
0,020605390457356
0,0181247146709104
0,0155532763431143
0,0128812456310863
0,0101073727413505
0,00724160446916013
0,00430676947003976
0,00133912477372653
-0,00161234985799969
-0,00448791765978226
-0,00722021051136649
-0,00973831256856358
-0,0119725129051153
-0,0138593731401945
-0,0153467183952686
-0,0163981530045449
-0,0169967270240171
-0,0171474341148392
-0,0168783018361969
-0,0162399357423593
-0,0153034913951154
-0,0141571648947805
-0,0129014039639869
-0,0116431394506189
-0,0104894138352854
-0,00954083301621447
-0,00888528636574671
-0,00859236625658073
-0,00870887281268402
-0,00925571585335103
-0,0102264293220122
-0,0115874011132443
-0,0132798015671783
-0,0152230759258864
-0,0173197586000288
-0,0194612781457783
-0,0215343579640217
-0,0234275834656598
-0,025037704003833
-0,0262752669932571
-0,0270692394984006
-0,0273703541836944
-0,0271530149971424
-0,0264157052087642
-0,0251799478048001
-0,023487967243829
-0,0213992846573703
-0,0189865396650814
-0,0163308670829402
-0,0135171642849232
-0,0106295656253229
-0,00774739730582311
-0,00494182446288812
-0,00227332867364177
0,000209924103051674
0,00247284045153233
0,00449336223190116
0,00626176654190806
0,00777946594697168
0,00905748326265912
0,0101147667411127
0,0109764862247343
0,0116724132529422
0,0122354439879657
0,0127002794754043
0,0131022392361281
0,0134761566836054
0,0138552920276714
0,014270201839324
0,0147475238409704
0,0153086680783761
0,0159684469285199
0,0167337204817503
0,0176021741206863
0,0185613750892611
0,019588268868534
0,0206492702338795
0,0217010761231565
0,022692278594339
0,0235657895049704
0,0242620098059595
0,0247225931212801
0,0248945743647122
0,0247345685777898
0,0242127013238573
0,023315916543417
0,0220503250071605
0,0204423075555426
0,0185381699731927
0,0164022550519475
0,0141135435994136
0,0117609090567999
0,00943731787872538
0,00723337762490383
0,00523071557197148
0,00349571350224666
0,00207412327271875
0,000987040738835143
0,000228624763912686
-0,000234180327878093
-0,000459816402314497
-0,00052824539545665
-0,000535284193180178
-0,000585534919583222
-0,000784431597507088
-0,00123000975294123
-0,00200504181229298
-0,00317016388434327
-0,00475854929010155
-0,00677256626257431
-0,00918270115671569
-0,0119288473972673
-0,0149238696370656
-0,0180591686525958
-0,0212118112316343
-0,0242526647033773
-0,0270548985893759
-0,0295021926822321
-0,0314960235211087
-0,0329614865623699
-0,0338512415592815
-0,0341473320096127
-0,0338608113718062
-0,0330292929228936
-0,0317127103614455
-0,0299877176808965
-0,0279412573287089
-0,0256638768894996
-0,023243372753476
-0,0207592855446747
-0,0182786723418302
-0,0158534449550954
-0,013519404919903
-0,011296939666189
-0,00919318621472235
-0,0072053335734267
-0,00532463523125974
-0,00354064778372005
-0,00184520549082398
-0,000235683406167053
0,00128281111828499
0,00269655628046121
0,00398373537868101
0,00511629671976395
0,00606294588116532
0,006792937392449
0,00728024220191373
0,00750762004113413
0,00747012689641666
0,00717763741280998
0,00665605556757765
0,00594701530924836
0,00510602356905767
0,00419915619915147
0,00329856728757381
0,00247719881717896
0,00180316786316127
0,00133435296948416
0,00111369491975769
0,00116566973211672
0,0014942882479826
0,00208283670268717
0,00289540938551568
0,00388011364470774
0,00497366571343508
0,00610695913731721
0,00721108968655539
0,00822327165474089
0,00909208582155238
0,00978155926073006
0,0102736864740753
0,0105691499430962
0,0106861721206299
0,0106576134210432
0,0105266042225721
0,0103411461930553
0,0101482246933496
0,00998802870368024
0,0098888716551657
0,00986334531357174
0,00990612463210509
0,00999368470234885
0,0100860062229728
0,0101301508020522
0,0100654006200367
0,00982949662711748
0,00936539129092826
0,00862786782912559
0,00758937466743721
0,00624448264296715
0,00461248840325325
0,00273785026252458
0,000688337703512013
-0,00144901518408984
-0,00357385807285182
-0,00557990049968089
-0,00736310273675682
-0,00882998358825182
-0,00990532450582573
-0,0105385911485001
-0,010708496231792
-0,0104252821060014
-0,00973049417644367
-0,00869422982652
-0,00741006291545187
-0,00598804213564575
-0,0045463251821709
-0,00320212566669016
-0,00206270638954206
-0,00121714660329414
-0,000729543509885808
-0,000634186067360041
-0,000933073528299547
-0,00159595690492768
-0,00256287578768158
-0,00374896330505772
-0,0050511151934341
-0,00635597920719893
-0,00754862911486768
-0,00852124954203271
-0,0091811753579904
-0,00945769881080107
-0,00930717153966752
-0,00871607580802558
-0,00770190633715627
-0,00631187639135177
-0,00461962495849626
-0,00272024309670543
-0,000724046402224875
0,00125040997969847
0,0030835507224594
0,00466172669466803
0,00588343507115781
0,00666444539581509
0,00694157151251899
0,00667494872204025
0,00584879598574488
0,00447075442647438
0,00256998728234755
0,000194296507713183
-0,00259344635549417
-0,00571924358275947
-0,00910199066012293
-0,0126573096120677
-0,0163009878594646
-0,0199518785029566
-0,0235341857255459
-0,0269791234879908
-0,0302259909684763
-0,0332227498337776
-0,035926213778669
-0,0383019690638426
-0,0403241371447063
-0,0419750696430778
-0,0432450358408618
-0,044131928332808
-0,044640978416764
-0,0447844438988802
-0,0445812121125813
-0,044056252768932
-0,0432398599999898
-0,0421666402965636
-0,040874231104608
-0,0394017704698233
-0,0377881771158374
-0,0360703379804522
-0,0342813316876996
-0,0324488373002512
-0,0305938844851964
-0,0287300917113466
-0,0268635126537634
-0,0249931686942167
-0,0231122900664596
-0,0212102241304389
-0,0192749019985454
-0,0172956905636088
-0,0152664023662597
-0,0131881967843665
-0,0110720878201418
-0,00894077986803119
-0,00682958486158213
-0,00478623147633222
-0,0028694565984038
-0,00114636580473631
0,000311344036554913
0,00143209936412132
0,00214980162062061
0,00240943403717706
0,00217248556229962
0,0014217308939609
0,000164919717621389
-0,00156301884141119
-0,00369956064749849
-0,00615614218366404
-0,00882172422030157
-0,011568241969062
-0,0142576614079011
-0,0167502157177384
-0,018913276065988
-0,0206302288773777
-0,0218086962134097
-0,0223874524319297
-0,0223414601792214
-0,021684568805344
-0,0204695808006179
-0,0187855851784645
-0,016752666056368
-0,0145143031713643
-0,0122279712652344
-0,010054600600628
-0,00814766714774485
-0,00664272769572973
-0,0056481965974626
-0,00523807674054212
-0,00544721303281513
-0,00626944286547701
-0,00765878996223005
-0,00953360431258333
-0,0117833119146909
-0,0142772242121583
-0,0168746870230895
-0,0194357375479796
-0,0218313959615918
-0,0239527494765113
-0,0257180895758643
-0,027077529016083
-0,0280147402110105
-0,0285457023018331
-0,0287145992930851
-0,0285872538692673
-0,0282426896702133
-0,0277635706784491
-0,0272263563351046
-0,0266920273707929
-0,0261981790086811
-0,0257531508495808
-0,0253326782609325
-0,0248793255154504
-0,0243047168674042
-0,0234943405127599
-0,0223144838178801
-0,0206206857727006
-0,018266979497709
-0,0151151533395369
-0,0110432865834476
-0,00595291126648321
0,000225695270960175
0,0075303872870027
0,0159662795701458
0,0255069925317765
0,0360976798044266
0,0476593469411798
0,0600938673804639
0,0732890645060215
0,0871232596222252
0,101468781399206
0,116194082665595
0,131164299673494
0,146240297340397
0,161276449627753
0,176117585220413
0,190595665322848
0,204526837095428
0,217709513200258
0,229924062100589
0,240934559409968
0,250492858932243
0,258345010330225
0,264239800383154
0,26793895078462
0,269228291920583
0,267929071438241
0,263908466797665
0,257088364383309
0,247451548761009
0,23504461083012
0,219977121593446
0,202416910538226
0,182581610104554
0,160726952725627
0,137132605628511
0,112086573489729
0,0858693665753042
0,0587392045729948
0,0309194941317036
0,00258968010064909
-0,0261196653847833
-0,0551269689196767
-0,0843948243435965
-0,113920433601637
-0,143721947873666
-0,173821697785145
-0,204227594798407
-0,234914186026185
-0,265804933285746
-0,296757254507065
-0,327551711505233
-0,357886462259701
-0,387377736874244
-0,415566670617269
-0,441932366724278
-0,465910600901856
-0,486917153911279
-0,504374400948732
-0,517739524373925
-0,526532570008448
-0,530362548171814
-0,528949890523768
-0,522143804424133
-0,509933400529784
-0,492451881495781
-0,469973538997165
-0,44290377853635
-0,41176284176458
-0,377164291541651
-0,33978963758994
-0,30036068901191
-0,259611311204488
-0,218260235103242
-0,176986421897926
-0,13640824082819
-0,0970673932855716
-0,0594181406249871
-0,0238219964967964
0,00945234151898788
0,0402243922142726
0,0683934749822709
0,0939275264104035
0,116850298342338
0,137228088266958
0,155157060938166
0,17075204736782
0,184137472973656
0,195440794447064
0,204788540877731
0,212304784846058
0,218111637271488
0,222331185153334
0,225088187347693
0,226512816628522
0,22674278553487
0,225924310889413
0,224211543220764
0,221764293795367
0,218744111886642
0,215308975931013
0,211607043323082
0,207770037146581
0,203906921384138
0,200098522389141
0,196393693458811
0,192807497508478
0,189321712080347
0,18588775773038
0,182431934574881
0,178862642791076
0,175079080577112
0,17098077420734
0,166477211821719
0,161496832656652
0,155994667879078
0,149958033465063
0,143409829842577
0,136409193161386
0,12904945202975
0,121453553119559
0,113767311333661
0,106150999441062
0,0987699058171456
0,0917845491602977
0,0853412427193436
0,0795636496617731
0,074545872364123
0,0703474821023878
0,0669907351086191
0,0644600508852283
0,0627036636846885
0,061637211570772
0,0611489103646572
0,0611058796726812
0,0613611489025888
0,0617608725663482
0,0621513224440125
0,0623852924854821
0,0623276415274961
0,0618597987001167
0,0608831563427198
0,0593213657873264
0,0571216247334603
0,0542550958248034
0,0507166219340821
0,0465239050054251
0,0417162951852732
0,0363533007182674
0,0305128835094865
0,0242895579120611
0,0177922685273626
0,0111419930235591
0,00446900288455588
-0,002090278849749
-0,00839685828838992
-0,0143131827529768
-0,0197075220911676
-0,024458595828723
-0,0284602624611905
-0,0316260354671091
-0,0338931545277564
-0,0352259257163632
-0,0356180549283819
-0,0350937359956234
-0,0337073176275906
-0,031541457764407
-0,0287037740480698
-0,0253221069891044
-0,0215386189955692
-0,017503048341712
-0,0133655135658452
-0,00926931317892709
-0,00534418256106694
-0,00170045171550679
0,00157550568401546
0,00442422661511151
0,00681432204219382
0,00874178348205512
0,0102275031767524
0,0113132111945376
0,0120561517344227
0,0125229161247474
0,0127829135008605
0,01290198651445
0,0129366661806229
0,0129295078936498
0,0129058636458195
0,0128723303640001
0,0128169801000935
0,0127113352395962
0,0125139122240262
0,0121750316310256
0,0116424907487448
0,0108676250366676
0,00981125250800261
0,00844900256386848
0,0067755774093321
0,00480757613188066
0,00258462226893737
0,00016866653058639
-0,00235852293985569
-0,00489953062888515
-0,00734684380657797
-0,00958939572650864
-0,0115196372495231
-0,0130406294999381
-0,0140726451422413
-0,0145587986163624
-0,0144692934571273
-0,013803972324979
-0,01259297521391
-0,010895444556734
-0,00879635290491335
-0,00640165968079343
-0,00383211896555893
-0,00121615242090809
0,00131773595235305
0,00364849745927163
0,00566952911930886
0,00729465765356058
0,00846272948774479
0,00914051672243844
0,00932376550453386
0,0090363405459309
0,00832754892862136
0,00726784901602389
0,00594325801737221
0,00444885733239601
0,00288185261092951
0,00133467172567733
-0,000111423056289422
-0,00139177192448219
-0,00246243594068253
-0,0033027239393784
-0,00391596776950056
-0,00432850947688051
-0,00458699002722
-0,00475414867222733
-0,00490344667890567
-0,00511291145927659
-0,0054586512240481
-0,00600851213075381
-0,00681633778673329
-0,0079172455746172
-0,00932425873999825
-0,0110265328952226
-0,0129892978814575
-0,0151555094799421
-0,0174490798089825
-0,0197794399146593
-0,0220470919815348
-0,0241497392129117
-0,0259885442562055
-0,0274740650012261
-0,0285314498279544
-0,0291045401636739
-0,0291586211067741
-0,0286816730947941
-0,0276840997218726
-0,0261970284635163
-0,0242693918726616
-0,0219640872689739
-0,0193535753129989
-0,0165153068486626
-0,0135273607414429
-0,01046463409516
-0,00739585438558628
-0,00438158776854434
-0,00147330843922253
0,00128651881659676
0,00386349566484189
0,00622972624441419
0,00836193102383314
0,0102395634518069
0,0118432441490671
0,0131537815201858
0,0141519704911365
0,0148192602244719
0,0151392674445914
0,0150999963607567
0,0146965216192158
0,013933808960672
0,012829299149571
0,0114148710205257
0,0097378321609005
0,00786065951223287
0,00585932147596181
0,00382014846226879
0,00183536769925552
-2,43401747782472E-06
-0,0016065241771022
-0,00290241806017202
-0,00383389557362697
-0,00436807605174803
-0,00449903059079875
-0,00424950890457923
-0,00367050094858742
-0,00283853124858778
-0,00185078081828463
-0,000818330054499955
0,000142002460804731
0,000916603443262526
0,00140407168395173
0,00152353264586899
0,00122153522261475
0,000476900858042133
-0,000696949404876492
-0,00225246162860008
-0,00411124792132654
-0,00617001260186188
-0,00830866845561191
-0,0104000063230766
-0,0123201328332088
-0,0139588082705464
-0,0152288081185397
-0,0160734999415778
-0,0164719672481933
-0,0164412125703655
-0,0160352162775124
-0,0153408945963706
-0,0144712665410229
-0,0135563814671107
-0,0127327551180059
-0,0121321946963562
-0,0118709505081533
-0,0120401076888049
-0,0126980281732006
-0,0138654792673494
-0,0155238560500098
-0,0176166404543417
-0,0200539634576814
-0,0227198726023133
-0,0254816782074027
-0,0282005780282575
-0,030742656728579
-0,0329893319971955
-0,0348463751152236
-0,0362507647325807
-0,0371748264986103
-0,0376273504568281
-0,0376516413976642
-0,0373207213984853
-0,0367301454908127
-0,0359890899278505
-0,0352105111081856
-0,0345012405306849
-0,0339528723389416
-0,0336342169182206
-0,0335859449892609
-0,0338178457019632
-0,0343088876783902
-0,0350100247613579
-0,0358494501089013
-0,0367397937771193
-0,0375865976933665
-0,0382973011267561
-0,0387899371217003
-0,0390007775520739
-0,0388902670501655
-0,0384467441010309
-0,0376876464834638
-0,0366581201868204
-0,0354271764710335
-0,0340817514908801
-0,0327191992002903
-0,0314388766405585
-0,0303335510590382
-0,029481365647909
-0,0289390454569719
-0,0287369129477235
-0,0288761241224763
-0,0293283452629145
-0,0300378835922063
-0,0309260801666783
-0,0318975870633786
-0,0328479986328383
-0,033672200311056
-0,0342727462634964
-0,0345675824354641
-0,0344964930264796
-0,0340257601022689
-0,0331506780460519
-0,031895743809442
-0,0303125354041534
-0,0284754789864478
-0,0264758740067867
-0,0244146827227129
-0,0223946842513913
-0,0205126372054946
-0,0188520858948656
-0,0174773844319394
-0,0164294063786529
-0,0157232639016409
-0,0153481917887436
-0,0152695719628851
-0,0154328979683944
-0,0157693205049512
-0,0162022871572122
-0,016654702197259
-0,0170559925739942
-0,0173484770021198
-0,0174924953802052
-0,0174698606211243
-0,0172853358134622
-0,0169660050340029
-0,0165585826943819
-0,0161248797505494
-0,0157358013505617
-0,0154643768469915
-0,0153784091886229
-0,015533369378345
-0,0159661495557552
-0,016690225992377
-0,0176926755603482
-0,0189333443978806
-0,0203462968723985
-0,021843490026798
-0,0233204379655001
-0,0246634665360523
-0,0257580243302164
-0,026497422349654
-0,0267913293419875
-0,0265733567296427
-0,0258071260323474
-0,0244903184290407
-0,0226563525738033
-0,0203735117811966
-0,0177415318232496
-0,014885851202547
-0,0119499022605484
-0,00908597028571963
-0,00644525756315813
-0,0041678517038376
-0,002373307994544
-0,00115251326706012
-0,000561407326101956
-0,000617004446778167
-0,00129599215024106
-0,00253600002857466
-0,00423944174102909
-0,00627965262926039
-0,0085088869831454
-0,0107676142504858
-0,012894471097665
-0,0147361915189269
-0,0161568517684022
-0,0170458286148429
-0,0173239726346443
-0,0169476343014171
-0,0159103386050258
-0,014242071540121
-0,0120063064405981
-0,00929504775134872
-0,00622229398761628
-0,00291641214446551
0,000488032572015589
0,00385843723177046
0,0070717866995229
0,0100212839812964
0,0126216191596508
0,0148126249866864
0,0165611920899439
0,0178614421455421
0,0187332738079398
0,0192194954332905
0,0193818344431676
0,0192961615802883
0,0190472878998492
0,018723684193912
0,0184124399650995
0,0181947271697241
0,0181419690375837
0,0183128432479267
0,0187511783107314
0,0194847381948637
0,0205248377561023
0,0218666934544366
0,0234903914567138
0,0253623479756439
0,0274371424384832
0,0296596194094439
0,0319671759684602
0,0342921730379191
0,036564427901191
0,0387137575732255
0,0406725466759194
0,0423783083887683
0,0437761937059082
0,0448213848631779
0,0454812867267745
0,0457374091858435
0,0455868183919383
0,0450430289401881
0,0441362158399336
0,0429126461567413
0,04143326573791
0,0397714249621521
0,0380097858340562
0,0362365164053702
0,0345409418762026
0,0330088786999069
0,0317179226586358
0,0307329889149499
0,0301024075325692
0,0298548597308738
0,0299973980168636
0,0305147294068555
0,0313698592988125
0,0325061001005528
0,033850350656065
0,0353174577303169
0,0368153872092884
0,0382508674048989
0,0395351257464383
0,0405893270628164
0,0413493382329332
0,0417694893340426
0,041825072281814
0,0415134089034882
0,040853424292422
0,0398837699640237
0,0386596461458353
0,0372485652886661
0,0357253723435601
0,0341668860008885
0,0326465454739254
0,0312294384571405
0,0299680489410452
0,0288990021869652
0,0280410038740017
0,0273940780688858
0,0269401119024364
0,0266446213771209
0,026459569764385
0,0263270035887386
0,0261832256149579
0,025963202029809
0,0256049025172793
0,0250532955845464
0,0242637639235667
0,0232047610855644
0,0218595956995451
0,0202272969508263
0,0183225793962992
0,0161749814613196
0,013827296372561
0,0113334444405908
0,00875595070782541
0,00616319268916218
0,00362657125186146
0,00121773660423116
-0,000994025506770051
-0,00294417118943868
-0,00457499063158694
-0,0058373895049988
-0,00669235078745823
-0,00711207804957765
-0,00708082432138239
-0,00659540824414053
-0,00566541344739621
-0,00431306051304284
-0,00257273612023823
-0,000490163386959008
0,00187879729858862
0,00446971565981977
0,00721150738973916
0,0100286551428309
0,0128436648216846
0,0155796609351385
0,0181630018561261
0,0205257796938919
0,0226080630693597
0,024359746460573
0,0257418878883568
0,0267274471323451
0,0273013776338096
0,0274600736159172
0,0272102256418535
0,0265671879628139
0,0255530045955549
0,0241942733906414
0,0225200444985131
0,0205599490643906
0,0183427346243672
0,0158953464345234
0,0132426414521308
0,0104077582466653
0,00741309738920701
0,00428179926725648
0,00103954654888001
-0,00228352715024455
-0,00565106719016147
-0,0090191146955539
-0,01233533753514
-0,0155390581403157
-0,0185621954958746
-0,0213311577643414
-0,023769632513531
-0,0258021313649154
-0,0273580635268927
-0,028376046209515
-0,0288081162512846
-0,0286234916215823
-0,0278115464971004
-0,0263837094386653
-0,024374068007284
-0,0218385595290676
-0,0188527389306176
-0,0155082312609146
-0,0119080885402791
-0,00816136778537201
-0,00437732036075832
-0,000659624905997691
0,00289889770042922
0,00622068018563602
0,00924657551882512
0,0119375523607003
0,0142747984316433
0,0162582449332842
0,0179036605844319
0,0192385887143202
0,020297503858003
0,0211166357952533
0,0217289419140527
0,0221596993803075
0,022423136791642
0,0225204344873952
0,0224393007590043
0,0221551880666709
0,0216340613955489
0,0208364834884575
0,0197226521965053
0,0182579255995338
0,0164183104824229
0,0141953755137247
0,0116000844628576
0,00866512514149106
0,00544543052314094
0,00201673997826814
-0,00152778177656794
-0,00508267703271508
-0,00853672571793616
-0,0117803849178426
-0,0147135497226042
-0,0172529971776143
-0,0193388775009659
-0,0209396731844969
-0,0220551535654516
-0,0227170020673928
-0,0229869738967223
-0,0229526391389792
-0,0227209638764601
-0,0224101638241956
-0,0221404158584283
-0,0220241197777669
-0,0221564563367642
-0,0226069828243901
-0,0234129438390748
-0,0245748567076063
-0,0260547670185982
-0,0277773724879661
-0,0296339980946932
-0,0314891888814094
-0,0331894859286636
-0,0345737815371675
-0,0354845248585019
-0,035778978890059
-0,0353397194204745
-0,0340836169957148
-0,0319686503677744
-0,0289980558677087
-0,0252215096852322
-0,0207332543541611
-0,0156673004564032
-0,010190043035234
-0,00449081380043526
0,00122896846438694
0,00676729603216453
0,0119329313933021
0,0165558640810977
0,0204961815393646
0,0236507988021301
0,025957658172577
0,0273972011888957
0,027991115960006
0,0277985579507339
0,0269102168190046
0,025440743119282
0,0235201466599497
0,0212848266801575
0,018868890480348
0,0163963635229805
0,0139747960375022
0,0116906379128033
0,00960659683262774
