0,0013264960680829
-0,00154332802298853
-0,00423485310242192
-0,0066618435027422
-0,0087531668000392
-0,0104561644420542
-0,011738609504153
-0,0125891691764526
-0,0130164253064267
-0,0130466314466364
-0,0127204874090039
-0,0120892828271085
-0,0112107937599912
-0,0101453090106193
-0,00895211781734497
-0,00768671402227449
-0,0063988729301918
-0,00513164725661075
-0,00392122002487004
-0,0027974568880382
-0,00178492827599714
-0,000904130472138452
-0,000172628155447349
0,000394130793101659
0,000782518052435145
0,00098105176328198
0,000981356727255974
0,000779666908674897
0,000378687998747791
-0,000210433696572911
-0,000966332821713657
-0,00185614266818995
-0,00283498729574754
-0,00384646458761793
-0,00482424604841973
-0,00569480831482988
-0,00638119144298716
-0,00680756233259517
-0,00690426046898324
-0,00661292847540996
-0,00589129040033555
-0,00471714156331031
-0,0030911565620399
-0,00103820410594647
0,0013930278033183
0,00413215502354465
0,00709087883514123
0,0101681901698148
0,0132566311577013
0,0162491475343017
0,019046002704251
0,0215612062746101
0,0237279392376669
0,0255025328320156
0,0268666725881272
0,0278276436309937
0,02841659559294
0,0286849715116061
0,0286994002999706
0,0285354831832275
0,0282709992824082
0,0279791058081703
0,0277221094678219
0,0275463373462886
0,0274785416207853
0,0275241409963771
0,027667443896825
0,0278738277566587
0,0280936799426854
0,0282677533602013
0,0283334668825853
0,028231597882335
0,0279127785809281
0,0273432226752383
0,0265091725612245
0,0254196649759811
0,0241073548745525
0,0226273017227139
0,0210537951192638
0,0194754631109156
0,0179890525509521
0,0166923841228068
0,0156770555810868
0,0150214895511221
0,0147848949722866
0,0150026364971898
0,0156833902629002
0,0168083173604916
0,0183323205223079
0,020187279014179
0,0222869958137225
0,0245334532407704
0,026823869756931
0,029057989991847
0,0311450270183975
0,0330097111011437
0,0345969792749103
0,0358749579672051
0,0368360362522933
0,0374959876839074
0,0378912603778899
0,0380747044804384
0,0381101308905644
0,0380661849345844
0,038010066382023
0,0380016293506839
0,0380883525817817
0,0383015866339607
0,0386543673759751
0,039140945252237
0,0397380293895979
0,0404075977574657
0,0411009919336487
0,0417639087226901
0,0423418297521723
0,0427853998121081
0,0430552772043566
0,0431260329731003
0,0429887654307691
0,0426522135443473
0,0421422869500916
0,041500069715159
0,0407784872584984
0,0400379396584783
0,0393412903032738
0,0387486494083466
0,038312403516742
0,0380729142941624
0,0380552458572024
0,0382671857178377
0,0386987089772843
0,0393229091434296
0,0400982931331674
0,0409722236583532
0,0418851990885764
0,0427755967384214
0,0435844752935856
0,0442600377091224
0,0447613959156115
0,0450613487533107
0,0451479776206113
0,0450249715981191
0,0447107052770185
0,044236198173144
0,0436421751854948
0,0429755154261237
0,0422854165648057
0,041619610957746
0,0410209485560624
0,0405246129226052
0,0401561661481852
0,0399305333650704
0,0398519463558001
0,0399147772101005
0,0401051152724659
0,0404028806541255
0,0407842303381261
0,0412240009879411
0,0416979461617776
0,0421845622550492
0,0426663527738801
0,0431304481579386
0,0435685712250322
0,0439764088366465
0,0443525116111321
0,0446968895224246
0,0450094978014611
0,0452888126149424
0,0455306795335807
0,0457275821591205
0,045868427494488
0,0459388843746952
0,0459222478474841
0,0458007425105792
0,0455571275468206
0,0451764306472782
0,0446476206903777
0,0439650315977773
0,0431293718170694
0,0421481931305509
0,0410357449233201
0,0398122004789255
0,0385023042591399
0,0371335474175663
0,0357340272978245
0,0343301806837052
0,0329445969187364
0,0315941140430228
0,0302883792075183
0,0290290157323264
0,0278094870099726
0,0266156866661305
0,025427220580623
0,0242192852199139
0,0229649936594727
0,021637960304462
0,0202149310968174
0,018678239919025
0,0170178843469541
0,0152330436704796
0,0133329065413793
0,0113367308762384
0,00927312006102151
0,00717856199816112
0,00509533598937235
0,00306894225602684
0,00114524613481705
-0,000632449056229956
-0,0022261814073493
-0,00360575484911333
-0,00475062916753343
-0,00565113730795007
-0,00630894302198503
-0,00673670928581401
-0,00695700699480744
-0,00700054965484827
-0,00690388901059347
-0,00670674518310413
-0,00644917012915637
-0,00616875341312808
-0,00589807371767578
-0,00566257884590339
-0,00547904277487941
-0,00535470330123858
-0,00528713137165091
-0,00526482729140085
-0,00526848386304365
-0,00527280631621613
-0,00524873742259527
-0,00516590670160321
-0,0049951073250825
-0,00471060459074492
-0,00429209560867792
-0,0037261701076253
-0,00300716468518881
-0,0021373541634623
-0,00112647990290524
9,32851573549757E-06
0,00124912958263392
0,00256909193590406
0,00394457904593212
0,00535219775755163
0,00677161349111656
0,00818695386360136
0,0095876576972588
0,0109686752745492
0,0123299843974611
0,0136754505356403
0,015011122655567
0,0163431136549585
0,0176752603818191
0,0190067885777612
0,0203302194338307
0,0216297450929087
0,0228802703811994
0,024047269172281
0,0250875396100739
0,0259508679785627
0,0265825324397883
0,0269265017699634
0,026929117364581
0,0265429951701535
0,0257308528335751
0,0244689595033291
0,0227499228134416
0,0205845688135248
0,0180027331298677
0,0150528606905588
0,0118004005780819
0,0083250746882883
0,00471718619783917
0,00107320895203109
-0,00250904462255312
-0,00593534651253641
-0,00911972988707454
-0,0119886030185221
-0,014484029519093
-0,0165659712455198
-0,0182133729786725
-0,0194240591243776
-0,0202135043511606
-0,020612624357618
-0,0206648027046162
-0,020422418979343
-0,019943168653324
-0,0192864640784061
-0,0185101799522732
-0,0176679582571417
-0,0168072222405496
-0,0159679730306002
-0,0151823634728295
-0,0144749694288576
-0,0138636161568519
-0,0133605724330191
-0,0129739017703829
-0,0127087603403789
-0,0125684544444595
-0,0125551138063851
-0,0126698956045971
-0,012912701640634
-0,0132814599653662
-0,0137710850998986
-0,0143722808051289
-0,0150703804897794
-0,0158444291013383
-0,0166666952590589
-0,0175027645469577
-0,0183123077044206
-0,0190505465866675
-0,0196703633283735
-0,0201249221852272
-0,0203706072166161
-0,0203700296738679
-0,0200948325230077
-0,0195280197647824
-0,0186655661794766
-0,0175171172103351
-0,0161056646200233
-0,0144661745669709
-0,0126432424860023
-0,0106879442208018
-0,00865413578573917
-0,00659451633978287
-0,00455680359335085
-0,00258037349985393
-0,000693685274026667
0,00108724974121755
0,00275918623987564
0,00433068973885196
0,00581996593095854
0,00725164967212842
0,00865283350723805
0,0100486978635431
0,0114581562971625
0,0128899436420141
0,0143395501115827
0,0157873414245598
0,0171981085456886
0,0185221684809997
0,019698000243358
0,0206562596139956
0,0213248853699282
0,0216349002672304
0,0215264326491544
0,0209544467679464
0,0198936761052065
0,0183423045257561
0,016324031537935
0,0138882830129386
0,0111084771778901
0,00807841499175493
0,0049070205679511
0,00171179756873716
-0,0013885207915825
-0,00428157716751139
-0,00686867163332891
-0,00907115948236409
-0,0108354711561019
-0,0121363669239187
-0,012978177748018
-0,0133939429681607
-0,0134425216807302
-0,0132039139724964
-0,0127731673006973
-0,0122533507792876
-0,011748147327851
-0,0113546354318437
-0,0111568074722103
-0,0112203029731379
-0,0115887292186101
-0,0122818079449094
-0,0132954369947245
-0,0146036026372968
-0,0161619345252555
-0,0179125725178836
-0,0197899223589317
-0,0217268219881902
-0,0236606253055986
-0,0255387351059644
-0,0273231779710116
-0,0289939044428389
-0,03055060900256
-0,0320129860607333
-0,0334194598066086
-0,0348245374910715
-0,0362950290930302
-0,0379054450326764
-0,0397329239798731
-0,0418520538437719
-0,0443299324125588
-0,047221773770142
-0,0505673082042153
-0,0543881535098409
-0,0586862613876478
-0,0634434704955048
-0,0686221331994915
-0,0741667300703056
-0,0800063469456737
-0,0860578643017776
-0,0922296965567898
-0,098425917239632
-0,104550611478166
-0,110512306403992
-0,116228339657531
-0,121629033693456
-0,12666154769575
-0,131293279470767
-0,135514687911578
-0,139341404701007
-0,142815504846408
-0,146005812607141
-0,149007135399555
-0,151938345532632
-0,154939269256743
-0,158166394122893
-0,161787467096388
-0,165975123645047
-0,170899757331982
-0,176721904527629
-0,183584473735064
-0,191605187875625
-0,200869625929824
-0,211425244104247
-0,223276724751425
-0,236382944171037
-0,250655771044825
-0,265960810392512
-0,282120100156265
-0,298916656409132
-0,316100656926864
-0,333396959301792
-0,350513575937146
-0,367150679532799
-0,383009692520499
-0,397802023401712
-0,411257050856889
-0,423129019276799
-0,433202591614096
-0,441296900325633
-0,447268037077819
-0,45101001909669
-0,452454357436849
-0,45156842402004
-0,44835286569183
-0,442838342342047
-0,43508187189207
-0,425163049231905
-0,413180372197852
-0,39924785993357
-0,383492092752527
-0,366049743487697
-0,347065613492066
-0,326691136516216
-0,305083274024489
-0,282403698293208
-0,258818145584254
-0,234495820330867
-0,209608740946443
-0,184330936235451
-0,158837425565298
-0,133302943088244
-0,107900393660291
-0,0827990535606486
-0,058162551090628
-0,0341466798192297
-0,0108971104440812
0,0114529237165566
0,0327848870634084
0,0529970645863004
0,072006463340906
0,0897504097676277
0,106187763006216
0,121299669466003
0,135089791864995
0,14758395762025
0,158829187643931
0,168892087829663
0,177856611795153
0,185821234221676
0,192895607991851
0,199196813217011
0,204845339431106
0,209960970640266
0,214658763321906
0,21904531697694
0,22321553311842
0,227250040331586
0,231213430128367
0,235153402053701
0,239100859520309
0,243070934081765
0,247064850183771
0,251072480319419
0,255075387453994
0,259050112675587
0,262971445323504
0,266815413010265
0,270561750894045
0,274195652232295
0,277708662689868
0,281098654431328
0,284368896636786
0,287526319875151
0,290579145662442
0,293534112835106
0,296393573463586
0,299152748904209
0,301797429215993
0,304302366747461
0,306630559694249
0,308733548323519
0,310552761523198
0,312021861637252
0,313069948957366
0,313625411233542
0,313620144780197
0,312993837260953
0,3116979911642
0,309699382246567
0,306982687417983
0,30355207811534
0,299431652837207
0,294664669526993
0,289311627566837
0,283447332963008
0,2771571521273
0,270532714035742
0,263667353632359
0,256651599282606
0,249568994023553
0,242492506427408
0,235481735814977
0,228581053365699
0,221818751031855
0,21520719997053
0,208743954919793
0,202413685162896
0,196190769843528
0,190042367349228
0,183931755723207
0,177821742657919
0,171677957492936
0,165471860870917
0,15918333705009
0,152802766005618
0,146332504524315
0,139787735258204
0,133196668800894
0,126600105820691
0,120050384483628
0,113609753812707
0,107348227593923
0,101340987311031
0,0956654174283295
0,0903978726572809
0,0856102943439154
0,0813668107610739
0,077720471990304
0,0747102818530461
0,072358694289737
0,0706697371142986
0,0696279101082039
0,0691979757854878
0,0693257198653474
0,069939705930754
0,0709539877695015
0,0722716775755533
0,0737892036787863
0,0754010333806223
0,077004590517759
0,0785050685715391
0,0798198324517159
0,0808821177282851
0,0816437753387528
0,082076870713284
0,0821740248149611
0,0819474748769125
0,0814269273679773
0,0806563669602649
0,0796900649799251
0,0785880918267532
0,077411674400422
0,0762187481024206
0,0750600323186634
0,0739759100339431
0,0729943204532954
0,0721297845862562
0,0713835856284806
0,0707450275648462
0,0701936056120274
0,069701849028669
0,0692385469786049
0,0687720457855179
0,0682733127161909
0,0677184962014966
0,0670907713266876
0,0663813363667478
0,0655895133748449
0,0647219946805113
0,0637913589947216
0,0628140478413617
0,0618080390397625
0,0607904749833144
0,0597754980493155
0,0587725149081685
0,0577850594856959
0,0568103567076071
0,0558396131160301
0,0548589839803813
0,0538510973292064
0,0527969603261462
0,0516780377776868
0,05047827946582
0,0491858831708632
0,047794612060349
0,046304534737826
0,0447221181349535
0,0430596709429486
0,0413342013376666
0,0395658106749943
0,0377757888798128
0,0359846033547987
0,0342099791823225
0,0324652542224872
0,0307581603954449
0,029090135885645
0,027456217371314
0,0258455026547862
0,0242421183496061
0,022626580169023
0,0209773993935658
0,0192727713198748
0,0174921811600323
0,0156177794016256
0,0136354097477421
0,01153521468245
0,00931179171550948
0,00696392223366958
0,00449393945648367
0,00190683775953406
-0,000790750943852933
-0,00359157901128004
-0,00648867424381136
-0,0094759913929851
-0,0125487462592858
-0,0157033938057443
-0,0189372544846236
-0,0222478347665704
-0,0256319243477733
-0,0290845799413606
-0,0325981212346048
-0,0361612670335881
-0,0397585287027957
-0,0433699549712677
-0,0469712893850995
-0,0505345624884325
-0,0540290990502234
-0,0574228803843402
-0,0606841668658872
-0,063783259374196
-0,0666942629705953
-0,0693967129535594
-0,0718769326839791
-0,0741290132158097
-0,0761553348280524
-0,0779665871660407
-0,0795812845800216
-0,0810248127951478
-0,0823280788659058
-0,0835258654329054
-0,0846550102789223
-0,0857525415805266
-0,0868538975676324
-0,0879913469973416
-0,0891927052801649
-0,0904804124385072
-0,091871006016593
-0,0933749876607362
-0,0949970493999728
-0,0967365975991615
-0,0985884915121351
-0,100543901106679
-0,102591186323173
-0,104716707223274
-0,106905490764733
-0,109141703541362
-0,111408908429305
-0,113690113812502
-0,115967653848571
-0,118222963976934
-0,120436334772475
-0,122586737061063
-0,124651810450424
-0,126608095589427
-0,128431568050309
-0,130098500324419
-0,131586640586608
-0,132876655990356
-0,133953748201522
-0,134809313824617
-0,135442496306818
-0,13586146226903
-0,136084236621974
-0,136138948575891
-0,13606337474521
-0,135903714284053
-0,135712591294147
-0,135546347075944
-0,135461753627351
-0,135512343973064
-0,135744608163566
-0,136194340363441
-0,136883437607087
-0,137817441405634
-0,138984078225781
-0,140352995027031
-0,141876804826408
-0,143493460202473
-0,145129867001646
-0,146706544824447
-0,148143044234702
-0,149363751877209
-0,15030366165394
-0,150913668731674
-0,151164957010156
-0,151052100392179
-0,150594581304406
-0,149836540969973
-0,1488447067403
-0,14770458222594
-0,146515124533317
-0,145382258015471
-0,144411674641901
-0,143701438287519
-0,143334937448607
-0,143374714894936
-0,143857644019486
-0,144791824269989
-0,146155439557589
-0,147897674275742
-0,149941623716377
-0,152188982352618
-0,154526157452851
-0,156831348124303
-0,158982060107637
-0,160862500076392
-0,162370311766931
-0,163422177970403
-0,163957911507024
-0,163942785898798
-0,163368001253233
-0,162249330287925
-0,160624130683756
-0,158547031253051
-0,156084690982239
-0,153310084945705
-0,150296785916349
-0,147113685445381
-0,143820536970228
-0,140464613049711
-0,137078658352401
-0,133680200284932
-0,13027216125153
-0,126844610980827
-0,123377413023543
-0,119843462880689
-0,116212189857059
-0,112453001067879
-0,108538381435305
-0,104446422702034
-0,100162630134204
-0,095680939132807
-0,0910039565553304
-0,0861425148774578
-0,0811146845563967
-0,0759444262181396
-0,070660077263142
-0,065292857357396
-0,0598755467925721
-0,0544414456402246
-0,0490236662790658
-0,0436547543445636
-0,038366580453035
-0,0331904034632816
-0,028156980364781
-0,0232965909664044
-0,0186388580375499
-0,0142122737802935
-0,0100433877766322
-0,00615566456182893
-0,00256807432932926
0,00070646869358733
0,00366266526281334
0,00630420801878316
0,00864479157860024
0,0107085868375306
0,012530046342799
0,0141529606983871
0,0156287514533898
0,0170140575955122
0,0183677435301284
0,0197475191315915
0,021206410580589
0,0227893489782042
0,0245301487723874
0,0264491285813381
0,0285515841824921
0,0308272606025465
0,0332508927061386
0,0357837982143512
0,0383764212730549
0,0409716462663096
0,0435086375851575
0,0459269173473466
0,0481703735887261
0,0501908979621705
0,0519513839252644
0,0534278708493698
0,0546106915579619
0,0555045639958735
0,0561276546549186
0,0565097243471576
0,0566895387060172
0,0567117803134285
0,0566237321333755
0,0564720106050383
0,0562996110997341
0,0561434905515518
0,0560328558961787
0,0559882580823358
0,0560215164312943
0,0561364239378689
0,0563301174261659
0,056594943038724
0,0569206117207811
0,0572964237429458
0,0577133464809279
0,0581657543083184
0,0586526804176654
0,0591784831344655
0,0597528883695514
0,060390429399641
0,0611093595720196
0,0619301578749201
0,0628737779106047
0,0639598054608615
0,0652046880023192
0,066620182337574
0,0682121365460037
0,0699796834476996
0,0719148792065683
0,0740027772403226
0,0762218887523208
0,078544950680018
0,0809399023664081
0,0833709652249941
0,0857997250363322
0,0881861329875007
0,0904893665856286
0,0926685218213435
0,0946831395834473
0,0964935984601131
0,0980614292365222
0,0993496208377505
0,100322991472304
0,100948691763547
0,101196889413241
0,101041659284276
0,100462071475852
0,0994434364368536
0,0979786341061128
0,0960694270903539
0,0937276391362267
0,0909760719740722
0,0878490373933535
0,0843923973622952
0,0806630322397027
0,0767276936395396
0,0726612414842287
0,0685443107415465
0,0644604985395717
0,0604932030609162
0,0567222784302367
0,0532206919859048
0,0500513798820471
0,0472644929740761
0,0448952074226047
0,0429622444789232
0,0414672034469159
0,0403947635303674
0,0397137574264212
0,0393790656045192
0,0393342288194856
0,0395146309334509
0,0398510675534653
0,0402734907845209
0,040714708218849
0,0411138160639485
0,0414191620589536
0,0415906627174574
0,0416013398149675
0,0414379904876425
0,0411009608614399
0,0406030512842882
0,039967638307881
0,039226150784076
0,0384150812389034
0,0375727459333507
0,0367360251912649
0,0359373180629735
0,0352019315234112
0,0345460946784109
0,0339757444777633
0,033486173920282
0,0330625703873141
0,0326814049530179
0,0323125682107581
0,0319220892961471
0,031475227104615
0,0309396902640043
0,0302887282295272
0,0295038416597647
0,0285768861554687
0,0275113880523653
0,0263229512207673
0,0250387052689968
0,023695822672468
0,0223392088952211
0,0210185391745668
0,0197848722792844
0,0186871101031165
0,0177685887065108
0,0170640793790426
0,0165974475124376
0,016380164622845
0,0164107987824841
0,0166755266955002
0,0171496235705987
0,0177998022862831
0,0185871985966852
0,0194707410326529
0,020410608156837
0,0213714655317875
0,0223251915055659
0,0232528437475909
0,0241456839732372
0,0250051610871879
0,0258418459366942
0,0266734058981717
0,0275217962077708
0,0284099192631713
0,0293580562907109
0,0303804026920856
0,0314820363421749
0,032656616829364
0,033885055492045
0,035135315859187
0,0363634084887563
0,0375155414128717
0,0385312862568014
0,0393475294231975
0,0399029054142153
0,0401423617954826
0,0400214867444395
0,039510242342752
0,038595788954908
0,0372841547431778
0,0356005939896534
0,033588581004818
0,0313074944810912
0,0288291513015547
0,0262334404709745
0,0236033795689074
0,0210199621185665
0,0185571809210692
0,0162775985130574
0,0142287927332058
0,0124409365902937
0,0109256828401592
0,00967642211777959
0,00866987723219571
0,00786889371996828
0,00722619596825914
0,00668880611192985
0,00620277491840607
0,00571785344826518
0,00519174272545848
0,00459359499321599
0,00390650128757972
0,00312878108607775
0,0022739842708188
0,00136961625284341
0,000454696113575844
-0,000423652480597254
-0,00121430377487788
-0,00186659929090176
-0,00233482993377723
-0,00258237621433193
-0,00258517841103495
-0,00233425977999577
-0,00183709810830473
-0,00111772849611799
-0,000215556697214849
0,000817039591519937
0,00191815171367632
0,00302057367060623
0,00405651736657028
0,00496246011621714
0,00568376261963287
0,00617871004099415
0,00642166913119437
0,00640511761647091
0,00614038371012264
0,00565702767932652
0,00500089699520621
0,00423098441914795
0,00341530722575484
0,00262609904608613
0,00193465808304652
0,00140622276184908
0,00109524610114085
0,0010414131001126
0,0012666930717054
0,00177364486578086
0,0025451026677478
0,00354527008648682
0,00472214790939413
0,00601112371343195
0,007339466682914
0,00863140479522173
0,00981341894562816
0,0108193728069701
0,0115951094867887
0,0121021854871351
0,0123204762051901
0,0122494704830291
0,011908168318028
0,0113335985403863
0,0105780743188421
0,00970539617642042
0,00878628785227388
0,00789340416040766
0,00709627795046027
0,00645657335085358
0,0060239848239302
0,0058330684659989
0,00590121773100335
0,00622790626832848
0,00679522293563996
0,0075696259975498
0,00850475275258093
0,00954504441786558
0,0106298899199062
0,0116979604705646
0,0126914016511999
0,0135595711443394
0,0142620560695451
0,0147707699276303
0,0150710096286519
0,0151614410813416
0,0150530698877325
0,0147673344981904
0,0143335261091608
0,0137857873148141
0,0131599664431586
0,0124906050408462
0,0118083126410549
0,0111377383548455
0,0104962873461425
0,00989365763142098
0,00933219553603818
0,00880799340106788
0,00831258731699075
0,00783506138905368
0,00736433252879183
0,00689137850369162
0,00641118251742889
0,00592419851469109
0,00543718957281463
0,00496335246478861
0,00452170913341508
0,00413581421866107
0,00383189083535539
0,00363655901744484
0,00357435819461821
0,00366528378499279
0,0039225571594359
0,00435082832592968
0,00494497377606506
0,00568960162087709
0,00655931698236104
0,00751973793127318
0,00852919143545521
0,00954096494512389
0,0105059467003218
0,0113754598421562
0,0121040838007051
0,0126522616154904
0,0129885127857866
0,0130911056143369
0,0129490874425048
0,0125626216363144
0,0119426323338958
0,011109807545252
0,010093054423503
0,00892753433963717
0,00765242774866991
0,0063085887018954
0,00493624639204703
0,00357289734707366
0,00225150881919674
0,000999123996995096
-0,000164074201487083
-0,00122521896232788
-0,00217874658250594
-0,00302595562819546
-0,00377420304028693
-0,00443581904874433
-0,00502683268323067
-0,00556560256221975
-0,00607144420618168
-0,00656333635805052
-0,00705877598236535
-0,00757283609001929
-0,00811746360321567
-0,00870103730828741
-0,00932818952610996
-0,00999988018725088
-0,0107136991122789
-0,0114643617542629
-0,0122443556981022
-0,0130446898776027
-0,013855695775544
-0,0146678297730213
-0,0154724281907113
-0,016262371311875
-0,0170326195183834
-0,0177805933670437
-0,0185063795057834
-0,0192127552899567
-0,019905036130409
-0,0205907603104325
-0,0212792354515714
-0,0219809783282764
-0,0227070847033432
-0,023468567894052
-0,0242757037163024
-0,0251374154460154
-0,0260607259234572
-0,0270502956243548
-0,0281080564070725
-0,0292329417460214
-0,030420706703146
-0,0316638255887273
-0,032951452962586
-0,034269434666683
-0,0356003598999217
-0,0369236524333614
-0,0382157079776316
-0,0394500941632036
-0,0405978381176066
-0,0416278326203006
-0,0425073939496735
-0,0432030016596517
-0,0436812420862758
-0,0439099633572227
-0,0438596307652242
-0,0435048488760346
-0,0428259926103278
-0,0418108660881059
-0,0404562878051546
-0,0387694862480487
-0,0367691835474305
-0,0344862478810393
-0,0319638089656658
-0,0292567550722351
-0,0264305635764357
-0,0235594581327876
-0,0207239313276073
-0,0180077187319116
-0,0154943548400231
-0,0132634796930518
-0,0113870935875921
-0,00992597336852925
-0,00892646551496638
-0,00841785782930727
-0,00841050345477175
-0,00889482989674371
-0,00984131445335413
-0,0112014495726273
-0,0129096613938979
-0,0148860864444553
-0,0170400594199089
-0,0192741229068827
-0,0214883406831537
-0,0235846817403196
-0,0254712430654578
-0,0270660949480711
-0,0283005615149884
-0,0291217887065895
-0,0294944987113688
-0,0294018803203251
-0,0288456150038075
-0,0278450853005056
-0,0264358524283103
-0,0246675216741587
-0,0226011358015642
-0,0203062480142249
-0,0178578273919217
-0,0153331423413962
-0,0128087532352006
-0,0103577260729148
-0,00804715687258364
-0,00593607357494789
-0,00407376024564131
-0,00249852854685535
-0,00123694455790946
-0,000303505275065926
0,000299251706703509
0,000580230359625762
0,000558882267312586
0,000263974925459414
-0,000267932912599011
-0,000994257087594727
-0,00186833565609353
-0,00284149072789225
-0,00386512901420023
-0,00489279874652877
-0,00588211605147157
-0,00679647276914815
-0,00760644116258624
-0,00829079980403457
-0,00883711954242511
-0,00924186870334018
-0,00951002181337836
-0,009654184879173
-0,00969328071612634
-0,00965086782531135
-0,00955319339330851
-0,00942710275095134
-0,00929794187851546
-0,00918759458665194
-0,00911279080757678
-0,00908380677037904
-0,00910365235372957
-0,00916780720342601
-0,00926452755665276
-0,00937570315948347
-0,00947820153557757
-0,00954559866829329
-0,00955016416037518
-0,00946494796229375
-0,00926580678537689
-0,00893321242861341
-0,0084537013485627
-0,0078208537144597
-0,00703572861828638
-0,00610672693356673
-0,00504890071233345
-0,00388277390957165
-0,00263277960658117
-0,00132545016233632
1,24839642104645E-05
0,00135592536962444
0,00268301817373249
0,0039764033392365
0,00522402412190798
0,00641942714536248
0,00756155137071267
0,00865404425404387
0,00970418724891548
0,0107215474901004
0,0117164957050187
0,0126987399586089
0,0136760198000409
0,0146530862811203
0,015631061986245
0,0166072347403187
0,0175752930263871
0,0185259648976398
0,019447979929488
0,0203292398620408
0,0211580615234632
0,0219243477962251
0,0226205498015902
0,0232423055928738
0,0237886754497432
0,0242619380350152
0,0246669608248597
0,0250102073825291
0,0252984881310644
0,0255375955151
0,0257309849741447
0,0258786673305097
0,0259764649593068
0,0260157540781714
0,025983771013108
0,025864505192888
0,0256401409679556
0,0252929499156393
0,0248074810791281
0,0241728542456481
0,0233849356040875
0,0224481692490721
0,0213768535831685
0,0201956882692335
0,0189394725638791
0,0176519053520607
0,0163835151762456
0,0151888282005707
0,0141229560966796
0,0132378472674771
0,0125784874709313
0,0121793551188073
0,0120614295964513
0,0122300174459043
0,0126736031511907
0,0133638528237047
0,0142568065537393
0,0152951963182246
0,0164117296925115
0,0175330938737382
0,0185843676666578
0,0194934876837665
0,0201954035344851
0,0206355772163978
0,0207725334256753
0,0205792464301725
0,0200432493121894
0,0191654644478326
0,0179578703183085
0,016440228813973
0,0146361890217421
0,0125691492522876
0,0102582919510134
0,00771520199922682
0,00494143681707603
0,00192733898186461
-0,0013477255874994
-0,00491364996792032
-0,00880647508585117
-0,0130641097198373
-0,0177212312279546
-0,0228038161832864
-0,0283238144524748
-0,0342745021299883
-0,0406270243350698
-0,0473285682123598
-0,0543024935459386
-0,0614506009661434
-0,0686575467918918
-0,0757972324758922
-0,0827408201502704
-0,0893658687648888
-0,0955659615372253
-0,101260116371342
-0,106401244738006
-0,110982955304605
-0,115044085953703
-0,11867048666805
-0,12199375674099
-0,125186849910133
-0,12845668466946
-0,132034117099425
-0,136161832960242
-0,141080878678151
-0,147016664052119
-0,154165323571083
-0,162681313266142
-0,172667046106827
-0,184165236240425
-0,19715444062837
-0,211548069538424
-0,227196901393374
-0,243894900618358
-0,26138791735201
-0,279384661792254
-0,29756920731871
-0,315614195330614
-0,333193896247728
-0,349996325586201
-0,365733716646218
-0,380150802801437
-0,393030549511971
-0,404197183274129
-0,413516574725382
-0,420894229164153
-0,4262713044546
-0,429619201158909
-0,430933343988734
-0,430226793033743
-0,427524288130344
-0,422857245212814
-0,416260098598732
-0,407768230172907
-0,397417559617096
-0,385245704240489
-0,37129446704899
-0,355613290082695
-0,338263226459778
-0,319320945057441
-0,298882288240405
-0,277064953270398
-0,254009955879626
-0,229881650664235
-0,204866215878303
-0,179168647197091
-0,15300843343442
-0,126614195652752
-0,100217650455958
-0,0740473024189942
-0,0483222770172099
-0,0232466751612327
0,000995231916378008
0,0242427357147356
0,0463612219118058
0,0672434773065895
0,0868098498292195
0,105007423876749
0,12180843445182
0,137208176405541
0,151222667660011
0,163886299023541
0,175249652546169
0,185377602236689
0,194347734034351
0,202249045683716
0,209180820840084
0,215251523381136
0,220577533506117
0,225281550049135
0,229490513734137
0,233332960970792
0,236935791504336
0,240420517815069
0,243899150177787
0,247469948826762
0,251213334372237
0,255188281662522
0,259429525223866
0,263945873864098
0,268719868868562
0,273708928743527
0,278848010959484
0,284053697287894
0,289229485286896
0,294271955977888
0,299077397748487
0,303548408380118
0,307599977527037
0,311164574337881
0,314195828886062
0,316670497538703
0,318588533752638
0,3199712365576
0,320857606726751
0,321299191960398
0,321353834233078
0,321078833058562
0,320524098645109
0,319725882773047
0,318701640712326
0,317446496601872
0,31593166339005
0,314105016088921
0,311893845844493
0,309209645917824
0,305954613436093
0,30202940635689
0,297341585334941
0,291814104184024
0,285393195938241
0,27805503576672
0,269810644658235
0,260708622587059
0,250835457077471
0,240313330527505
0,22929553356899
0,217959767970326
0,206499777585503
0,1951158679157
0,18400495480618
0,173350814883862
0,16331519247064
0,154030351652151
0,145593553377655
0,138063794516434
0,131460979814819
0,12576752137533
0,120932186953737
0,116875860946646
0,113498751999217
0,110688487987241
0,108328489213603
0,106306007045621
0,104519257522827
0,102883163780453
0,101333340483475
0,0998280982713651
0,0983484051467304
0,0968959024500073
0,0954892232686369
0,0941589894190524
0,0929419598915138
0,091874861744698
0,0909884497361532
0,0903023126990822
0,0898208753662076
0,0895309397249931
0,0894009784912005
0,089382245420551
0,0894116146617619
0,0894159163321921
0,0893174094344743
0,0890399361922894
0,0885152416017656
0,0876889233565015
0,0865255019047063
0,0850121664244611
0,0831608548475608
0,0810084567296701
0,0786150764513532
0,0760604491822346
0,0734387509173502
0,0708521747916574
0,0684037482750757
0,0661899314240566
0,0642935597025071
0,062777673927108
0,0616807160821186
0,061013467984816
0,0607579779977447
0,0608685695358706
0,0612748659563302
0,0618866121420697
0,0625999358999535
0,0633045830283189
0,0638915871646584
0,0642608049301012
0,0643277607050745
0,0640293022374552
0,0633276634182532
0,0622126560994198
0,060701858515739
0,0588388219052211
0,0566894669578789
0,0543369758245604
0,0518755931470281
0,0494038227548425
0,0470175400584757
0,0448035319027099
0,0428339272722761
0,0411618986236282
0,0398189023991462
0,0388135982554728
0,0381324507318173
0,0377418858187067
0,0375917588381811
0,0376197982610716
0,0377566293669362
0,0379309558913768
0,0380744878762764
0,0381262475128343
0,0380359568525012
0,0377663044247698
0,0372939932147055
0,0366095804095692
0,0357162203941079
0,034627508133406
0,0333646835764425
0,0319534945186155
0,0304210235752743
0,0287927652661953
0,0270901949451114
0,0253290077652272
0,0235181299248827
0,0216595237764058
0,0197487308180186
0,0177760292422515
0,015728031478856
0,0135895160949502
0,0113452795423867
0,00898180630574264
0,00648858878014084
0,0038589765468092
0,00109049325144729
-0,0018153782319839
-0,00485388155080578
-0,00801803094847025
-0,0112998625203096
-0,014691719708668
-0,018187396893376
-0,0217829803190163
-0,0254772578441533
-0,0292716147915972
-0,0331693880426696
-0,0371747091637357
-0,0412909242806832
-0,0455187282621469
-0,0498541889497009
-0,0542868600773646
-0,0587981869535874
-0,0633603962148746
-0,0679360308296253
-0,0724782462878587
-0,0769319270485324
-0,0812356182711842
-0,0853242015982166
-0,0891321804758165
-0,0925973851617361
-0,0956648645161331
-0,0982907044178774
-0,100445503505025
-0,102117246960028
-0,103313347904605
-0,104061672028329
-0,104410421413866
-0,104426824333508
-0,104194654361524
-0,103810679444398
-0,103380214350652
-0,103012013227353
-0,102812788408296
-0,102881673575858
-0,103304961423439
-0,104151436910766
-0,105468597242829
-0,107280000416213
-0,109583918435235
-0,11235339316768
-0,115537707169361
-0,119065194201897
-0,122847230320379
-0,126783171898918
-0,130765946824906
-0,134687963480369
-0,138446981955523
-0,141951594762473
-0,145125990039472
-0,147913717289598
-0,150280240953825
-0,152214146169887
-0,153726948573769
-0,154851549930503
-0,15563946757669
-0,156157042212694
-0,156480890244903
-0,156692909567665
-0,156875168567546
-0,157105006138952
-0,157450646073737
-0,157967584514662
-0,158695947810632
-0,159658944876347
-0,160862458612815
-0,162295741040457
-0,163933102381987
-0,165736420753815
-0,167658250732222
-0,169645279003136
-0,171641865186927
-0,173593415828154
-0,175449367945851
-0,177165602534804
-0,17870616398729
-0,180044223695613
-0,181162289895077
-0,18205172593998
-0,18271169092625
-0,183147656003195
-0,183369674066095
-0,183390588336339
-0,183224356573948
-0,182884643652879
-0,182383798544399
-0,181732285964643
-0,18093859232567
-0,180009574754766
-0,178951175367778
-0,177769384769869
-0,176471312264921
-0,175066207766911
-0,173566283018305
-0,171987197236755
-0,170348103248461
-0,168671191922916
-0,166980721739519
-0,165301572426908
-0,163657412277493
-0,162068613564353
-0,160550085389513
-0,159109214987831
-0,157744114717722
-0,156442361563922
-0,15518038921679
-0,153923651168799
-0,152627619588043
-0,151239622752809
-0,149701458158844
-0,147952654046615
-0,145934194118758
-0,143592473403728
-0,140883221628223
-0,137775117166826
-0,134252821385374
-0,130319190319886
-0,125996466890176
-0,121326319534239
-0,116368668209417
-0,111199321010431
-0,105906528343649
-0,100586640532653
-0,095339122884146
-0,090261234242055
-0,0854427065733627
-0,0809607712070129
-0,0768758607920212
-0,0732282754262771
-0,0700360391829605
-0,0672940936158713
-0,0649748833156595
-0,0630302919063266
-0,0613947921879416
-0,059989588638611
-0,0587274608500382
-0,0575179681497703
-0,0562726526530336
-0,0549098822751203
-0,0533590066934769
-0,0515635556509095
-0,0494832859565858
-0,0470949751543293
-0,0443919587532605
-0,0413825063059077
-0,0380872214920204
-0,0345357254262981
-0,030762934629108
-0,0268052711523383
-0,0226971401725816
-0,0184679801198708
-0,0141401347231979
-0,00972771994601302
-0,00523656813697354
-0,000665234587090907
0,00399304369291198
0,00874763262595664
0,0136072930717891
0,0185767894000591
0,023653642313391
0,0288253437895194
0,0340673147974037
0,0393418251711524
0,04459801500661
0,0497730651070484
0,0547944682264838
0,0595832612559705
0,0640579987726747
0,068139187048599
0,071753859596526
0,0748399633889798
0,0773502395431992
0,0792553217490389
0,0805458361800056
0,0812333625591564
0,0813502007878859
0,0809479738929657
0,0800951789785275
0,0788738670590437
0,0773756851016418
0,0756975459547463
0,0739372026334558
0,0721889931273246
0,0705399927448581
0,0690667667138942
0,0678328610833877
0,0668871102198209
0,0662627796513432
0,0659775085336816
0,0660339704798175
0,0664211376567052
0,0671160122403729
0,0680856815093133
0,0692895568089441
0,0706816700446786
0,0722129213875025
0,0738331953091897
0,075493285844839
0,0771465935008031
0,0787505735792127
0,0802679278496723
0,0816675383426559
0,0829251442809964
0,0840237621879033
0,0849538467928701
0,0857131884239284
0,0863065428456457
0,0867449932929534
0,0870450524063663
0,087227523826492
0,0873161585015803
0,0873361578004808
0,0873125923232659
0,0872688196096768
0,0872249936149558
0,0871967619661544
0,0871942424032752
0,0872213569367565
0,0872755815303721
0,087348141827912
0,0874246536471025
0,0874861733529074
0,0875105907781497
0,0874742691244745
0,0873538149933968
0,0871278495134035
0,0867786498033122
0,0862935390949379
0,0856659231105346
0,084895898114524
0,0839903900163193
0,0829628209984816
0,0818323370768052
0,0806226635628558
0,0793606826653287
0,0780748462401174
0,0767935455158127
0,0755435580607477
0,0743486808221706
0,0732286381550484
0,0721983275222341
0,0712674355730741
0,0704404264493432
0,0697168751540419
0,0690920940670176
0,06855798204831
0,0681040141683999
0,0677182863250252
0,0673885324607629
0,0671030417529692
0,0668514174892535
0,0666251365680175
0,0664178868050357
0,0662256767728701
0,066046728351653
0,0658811745801319
0,0657305943152916
0,0655974206657141
0,0654842626102509
0,0653931793783648
0,0653249459031042
0,0652783458088047
0,0652495265819903
0,0652314501878918
0,0652134714162561
0,0651810753484061
0,0651158039130708
0,0649953987252336
0,0647941824946863
0,0644836935302746
0,0640335769036654
0,063412721688261
0,0625906168889014
0,0615388802672103
0,0602328957012544
0,0586534778100803
0,056788469205882
0,0546341677770612
0,0521964803334836
0,049491705788946
0,0465468660955011
0,0433995259206971
0,0400970712971652
0,0366954511670713
0,0332574213535862
0,0298503650907682
0,0265437949171319
0,0234066647333947
0,0205046359684486
0,017897446634797
0,0156365260525818
0,0137629816575662
0,0123060589623324
0,0112821436939486
0,0106943391748943
0,0105326153334293
0,0107744914570169
0,0113861857512838
0,012324143167059
0,0135368401535331
0,0149667614413494
0,0165524490714004
0,0182305362238881
0,0199376958223432
0,0216124537889299
0,0231968365058518
0,024637838989301
0,0258887124948693
0,0269100765112297
0,0276708600115385
0,028149071009663
0,028332383425574
0,028218518141414
0,0278153835864671
0,027140932908581
0,0262226922238603
0,0250969194773435
0,0238073670076681
0,0224036429516402
0,0209391958435456
0,0194689808406848
0,0180469017093443
0,0167231561410194
0,0155416391537705
0,0145375764000121
0,0137355630606678
0,0131481726103533
0,0127752724157973
0,0126041408453094
0,0126104258024313
0,0127599213609638
0,0130110726043158
0,0133180547028117
0,0136342167800391
0,0139156398427302
0,0141245356776748
0,0142322133410302
0,0142213630022545
0,0140874526893532
0,0138390989937637
0,0134973531773147
0,0130939329215497
0,0126685196647044
0,0122653241743251
0,0119291911377543
0,0117015605667807
0,0116166248677382
0,0116980128387098
0,0119562954533807
0,0123875454978745
0,0129730987623048
0,0136805654736019
0,0144660353255888
0,0152773169239296
0,0160579617309462
0,0167517517763639
0,0173072859788093
0,0176822860948619
0,0178472616402714
0,0177882223233531
0,0175082025784999
0,0170274592869289
0,0163823124781603
0,015622710400561
0,0148087052483234
0,0140061150496189
0,0132817131789447
0,0126983241457083
0,0123102097634246
0,0121591033655802
0,0122711939887204
0,0126552825300678
0,0133022349393937
0,0141857520061422
0,0152643703610722
0,0164845137170014
0,0177843349995273
0,0190980349644272
0,0203603151388504
0,0215106239353757
0,0224968835105874
0,0232784379679954
0,0238280354494313
0,0241327406945879
0,0241937632030177
0,0240252715593516
0,0236523397601156
0,0231082307345331
0,022431261559841
0,0216615120341282
0,0208376332071962
0,0199939870912217
0,0191583066490139
0,0183500110999864
0,0175792511343736
0,0168466974719668
0,0161440296453445
0,0154550343697869
0,0147571875825074
0,0140235729541081
0,0132249826554167
0,0123320522543863
0,0113172985057925
0,010156953358705
0,00883251619178868
0,00733197558351132
0,00565067871781371
0,00379184843928503
0,00176676360096931
-0,000405372706022916
-0,00269784953500206
-0,00507712324234772
-0,00750372977929281
-0,00993341690742643
-0,0123184815943814
-0,0146092965877093
-0,0167560041059832
-0,0187103435455562
-0,0204275648333879
-0,0218683611909946
-0,0230007369694763
-0,0238017106178141
-0,0242587426364165
-0,0243707760912923
-0,0241487848730189
-0,0236157433529898
-0,0228059602804521
-0,0217637583005228
-0,0205415258131167
-0,0191972165041558
-0,017791419553465
-0,0163841657525382
-0,0150316672106116
-0,0137832072412957
-0,0126783996875753
-0,0117450219777096
-0,010997593768305
-0,0104368249050925
-0,010049995893301
-0,00981226569088572
-0,00968883086085605
-0,00963779284715114
-0,00961353215443982
-0,0095703447061119
-0,00946607069273111
-0,0092654423905429
-0,00894289555581803
-0,00848462803692046
-0,00788974634812924
-0,00717041166449357
-0,00635097536057894
-0,00546617438899255
-0,00455853184987985
-0,00367517174862345
-0,00286430380610196
-0,00217166025330299
-0,00163716951633456
-0,00129213120432641
-0,00115711444747478
-0,00124074081851597
-0,00153943882374609
-0,00203817539639675
-0,00271208777288598
-0,00352886344561288
-0,00445165294307283
-0,00544225535997327
-0,00646429372233363
-0,00748609852786771
-0,00848304324319859
-0,00943912326964423
-0,0103476361150322
-0,011210899880506
-0,0120390331400898
-0,0128479046914681
-0,0136564392137249
-0,0144835278549981
-0,0153448354911423
-0,0162498147431214
-0,0171992285846755
-0,0181834484678085
-0,0191817354752324
-0,0201626323050109
-0,0210854999599185
-0,0219031322527512
-0,0225652819111821
-0,023022842569958
-0,0232323592099432
-0,0231604923877517
-0,0227880439074085
-0,0221131661674668
-0,0211534245052283
-0,0199464589753221
-0,0185490941187953
-0,017034865067074
-0,0154900566997585
-0,014008479337785
-0,0126853191116874
-0,0116104937396094
-0,0108620064320176
-0,010499815612204
-0,0105607224727587
-0,0110547216778134
-0,0119631656725799
-0,0132389662721793
-0,0148089074948287
-0,016577982213054
-0,018435504739162
-0,0202626048722305
-0,0219405884605243
-0,0233595656803752
-0,0244267087896984
-0,0250735105116089
-0,0252614729659344
-0,0249857617342227
-0,0242765029258147
-0,0231975724307253
-0,0218429128222069
-0,0203306001160041
-0,0187950550121533
-0,0173779375486351
-0,0162183685857811
-0,0154431776472609
-0,0151578796465296
-0,0154390324735787
-0,0163285271750124
-0,0178302204157029
-0,0199091462933266
-0,0224933550444551
-0,0254782346553546
-0,0287329928130878
-0,03210882474888
-0,0354481787138193
-0,0385944632431036
-0,0414015232735064
-0,0437422457024238
-0,0455157351661277
-0,046652620080336
-0,0471181968130781
-0,0469132838087237
-0,0460728242175314
-0,0446624321106469
-0,0427732119999504
-0,0405152847770222
-0,0380105189221954
-0,0353849909075199
-0,0327616835376004
-0,0302538792559723
-0,0279596236116233
-0,0259575306517092
-0,0243040866734827
-0,023032491539626
-0,0221529670495472
-0,0216543677262163
-0,0215068569143108
-0,0216653640258341
-0,0220735183749785
-0,022667760115244
-0,0233813560926634
-0,0241480930284368
-0,0249054764436326
-0,0255973247934704
-0,0261757083464728
-0,0266022361252505
-0,0268487377159018
-0,0268974174064393
-0,0267405750479781
-0,0263799918818463
-0,0258260723388336
-0,0250968174500433
-0,0242166855920803
-0,0232153754870972
-0,0221265480932257
-0,0209864909767817
-0,0198327227302553
-0,0187025366938949
-0,0176314922114071
-0,0166518764487762
-0,0157911781369761
-0,0150706336604493
-0,0145039226611572
-0,0140961019115881
-0,0138428702324091
-0,0137302520581411
-0,013734772212474
-0,0138241699103523
-0,0139586673753516
-0,0140927700895265
-0,0141775346652944
-0,0141632001608489
-0,014002043039629
-0,0136512883338821
-0,0130758928571336
-0,0122510126269116
-0,0111639770809352
-0,00981561712930223
-0,00822083130280431
-0,00640832186358934
-0,00441948739321631
-0,00230651606628389
-0,000129780151470424
0,00204531712898586
0,00415185046759152
0,00612501751532033
0,00790568842471047
0,0094436327755853
0,0107002178507599
0,0116504083744486
0,0122839463374139
0,0126056467238028
0,0126348064128699
0,0124037845132739
0,0119558681812125
0,0113425843354625
0,0106206511224011
0,00984878115018387
0,00908455029452
0,00838153156532025
0,0077868647000023
0,00733939160644742
0,00706843918654632
0,00699327870162693
0,00712323913381427
0,00745840519617061
0,00799079240309886
0,0087058646925981
0,00958424613720871
0,010603477720335
0,011739682169515
0,0129690225379439
0,0142688708225263
0,0156186380510308
0,017000253360788
0,018398313187347
0,019799949755812
0,0211944883655083
0,0225729741061055
0,0239276503007636
0,0252514637660645
0,0265376574252416
0,0277794910708891
0,0289701087423977
0,030102548933905
0,0311698742104024
0,0321653818463242
0,0330828482604489
0,0339167579751841
0,0346624724699169
0,0353163047547636
0,0358754802996075
0,0363379821894521
0,0367022959537402
0,0369670853350849
0,037130842523738
0,0371915636844382
0,0371465021436518
0,0369920471887741
0,03672376650388
0,0363366358093606
0,0358254617166354
0,0351854848371754
0,0344131315886429
0,0335068666192876
0,0324680847985037
0,0313019734056382
0,0300182721529028
0,0286318612298179
0,0271631153798078
0,0256379744817185
0,0240876972302839
0,0225482831126273
0,0210595676471297
0,0196640155133722
0,0184052545015454
0,0173264091202027
0,0164683053335509
0,0158676266491738
0,0155551062541827
0,0155538399680519
0,0158778005181859
0,0165306253534964
0,0175047383521061
0,0187808509834449
0,0203278715274438
0,0221032326911481
0,0240536293565273
0,0261161402187499
0,0282196907206921
0,0302868008584159
0,0322355509314345
0,0339816917297826
0,0354408233611152
0,0365305689678132
0,0371726757072983
0,037294984957348
0,0368332258334761
0,035732599605053
0,0339491361090638
0,0314508154206859
0,0282184575242479
0,0242463884980489
0,0195428930743742
0,0141304601706447
0,00804582043465973
0,00133976396874451
-0,00592328638361185
-0,0136659835527086
-0,0217990944917013
-0,0302229222242372
-0,0388291653998613
-0,0475032605723712
-0,0561272348077878
-0,0645830693547231
-0,0727565398073147
-0,0805414562889141
-0,0878441814670467
-0,094588258258796
-0,100718937006004
-0,106207358023705
-0,111054123909663
-0,115291990437643
-0,118987417886348
-0,122240757650656
-0,125184901800977
-0,127982294124205
-0,130820286712411
-0,133904921502223
-0,137453315311068
-0,14168492307608
-0,146812040171886
-0,153029974123471
-0,160507362859132
-0,16937713631579
-0,179728607964548
-0,191601141914507
-0,204979771176954
-0,219793047015816
-0,235913283638639
-0,25315923389699
-0,271301098365367
-0,290067640789702
-0,309155065972174
-0,328237219374004
-0,346976597465519
-0,365035618644498
-0,382087598796942
-0,39782690334558
-0,41197780673205
-0,424301676360111
-0,434602205032344
-0,442728536437742
-0,4485762541955
-0,452086328048794
-0,453242223236181
-0,452065473993528
-0,448610094164372
-0,442956243350985
-0,435203584207277
-0,425464755570707
-0,413859349256453
-0,400508719158315
-0,385531874781089
-0,36904262326767
-0,351148030596498
-0,331948180076635
-0,311537120311938
-0,290004820370188
-0,267439890892109
-0,243932788989046
-0,219579203418069
-0,194483314827133
-0,168760642832642
-0,142540225319467
-0,115965922863443
-0,0891966992274204
-0,0624057938256792
-0,0357787701135859
-0,00951049137833906
0,0161988610543503
0,0411485556731955
0,0651426462840467
0,0879956215563274
0,10953809300249
0,129622237880983
0,148126720029887
0,164960832287513
0,180067638039726
0,193425935083553
0,205050920372604
0,214993496773655
0,223338229714535
0,230200029240374
0,235719697963973
0,240058544151709
0,24339230830241
0,245904688015797
0,247780767212639
0,249200660191611
0,250333667800941
0,251333212492162
0,252332772632325
0,253442976709571
0,254749948481711
0,256314919031296
0,258175045952269
0,260345308578409
0,262821286202228
0,265582578018014
0,268596592565747
0,271822423078077
0,275214534258841
0,278726015005852
0,282311198286921
0,285927510187957
0,289536480344665
0,293103919962435
0,296599345500449
0,299994789975026
0,303263194496798
0,306376605855457
0,309304418932461
0,31201189432142
0,31445915249129
0,316600798589935
0,318386270656664
0,319760933915622
0,320667871144571
0,321050250290614
0,320854091747998
0,32003121437126
0,318542115428239
0,316358537670561
0,31346549695453
0,30986258483657
0,305564418874621
0,300600183984201
0,295012284934402
0,288854206141514
0,282187743495778
0,275079827819323
0,267599195626422
0,259813176703026
0,251784858150809
0,243570851564321
0,235219836631126
0,226771985198843
0,218259290762732
0,209706746327212
0,20113423599277
0,192558939349289
0,183997998867163
0,175471173493482
0,167003199234783
0,1586256001213
0,150377738910917
0,14230696240346
0,134467775780459
0,126920067154208
0,11972649001311
0,112949189958687
0,106646126150449
0,100867281521686
0,0956510751347282
0,091021283134937
0,0869847419464979
0,0835300511946624
0,0806274188490103
0,0782297034064668
0,0762746147447352
0,0746879442720818
0,073387613627583
0,0722882661165472
0,071306081581865
0,070363476996604
0,0693933631129306
0,0683426612335736
0,0671748407228892
0,0658713125195592
0,0644316005470135
0,0628723044894449
0,0612249566126954
0,0595329550879263
0,0578478205031321
0,0562250660893229
0,0547199925995295
0,0533837146205385
0,0522596972635035
0,0513810334295619
0,050768626583564
0,050430367825169
0,0503613153880556
0,0505448061361399
0,0509543583985501
0,0515561690398609
0,0523119691488836
0,0531819847693046
0,0541277525087345
0,0551145637508212
0,0561133529478658
0,0571019010890972
0,0580652898792932
0,0589956097514758
0,0598909898016854
0,0607540746359633
0,0615901173670802
0,0624048861227351
0,0632025914748152
0,0639840337480506
0,0647451434264072
0,065476047508579
0,0661607435485657
0,0667774059947813
0,0672992914820505
0,0676961561050162
0,0679360530798659
0,067987347408953
0,0678207677938327
0,0674113162921796
0,0667398727445376
0,0657943620176461
0,0645703945242413
0,0630713401896642
0,0613078483256809
0,059296875828705
0,0570603291116511
0,0546234572562617
0,0520131521513943
0,0492563143084388
0,0463784305327431
0,0434024830643136
0,0403482719242968
0,0372321868409016
0,0340674168082344
0,0308645388971013
0,0276323880260729
0,0243790800392193
0,0211130445983058
0,0178439237755239
0,0145832069572621
0,011344501410794
0,00814337781743511
0,00499677733322094
0,00192201655800172
-0,00106452583834372
-0,00394891707373557
-0,00672122059931921
-0,00937692293773728
-0,011918073918449
-0,0143539966572677
-0,0167014582419254
-0,018984238849504
-0,0212320916733938
-0,0234791434436465
-0,0257618399762864
-0,0281165877390771
-0,0305772761778703
-0,0331728830025871
-0,0359253637275865
-0,0388480072247768
-0,041944402334625
-0,045208109869169
-0,0486230741445962
-0,0521647440315946
-0,0558018113645465
-0,0594984202526562
-0,0632166595711425
-0,0669191266438539
-0,0705713452815214
-0,0741438364611502
-0,0776136737079651
-0,0809654045148024
-0,0841912792901158
-0,0872907946309809
-0,0902696219379111
-0,0931380493507215
-0,0959091091928103
-0,0985965902788015
-0,101213141918848
-0,10376866352395
-0,106269141620047
-0,108716047984263
-0,111106353252356
-0,113433145593248
-0,115686780337392
-0,117856430158944
-0,119931862217291
-0,121905242954806
-0,123772765744776
-0,125535911946187
-0,127202190813316
-0,128785254750752
-0,13030434865748
-0,131783119405028
-0,133247877187141
-0,134725457959828
-0,136240879678862
-0,137815010070768
-0,13946246759026
-0,141189959485246
-0,142995223066544
-0,144866681990829
-0,146783863841885
-0,148718554941526
-0,150636600020576
-0,152500194845536
-0,154270474965257
-0,155910177809334
-0,157386150938327
-0,15867149664745
-0,159747180523537
-0,160602985103675
-0,161237753991464
-0,161658940151947
-0,161881537666007
-0,161926532380394
-0,161819047977975
-0,161586385962405
-0,161256158793181
-0,160854695055312
-0,160405856419176
-0,159930352523121
-0,159445577646009
-0,158965928870124
-0,158503506409058
-0,158069049405478
-0,157672930168949
-0,157326020133771
-0,157040253270901
-0,156828746424245
-0,156705387926936
-0,156683870766115
-0,156776217828706
-0,156990916875649
-0,157330844209156
-0,157791201539148
-0,158357714718316
-0,159005342197295
-0,15969771401635
-0,160387470299527
-0,161017595447323
-0,161523756655101
-0,161837560849975
-0,161890551408964
-0,161618684042118
-0,160966958251974
-0,159893843541067
-0,15837513258514
-0,156406878821146
-0,154007132256375
-0,15121627088025
-0,148095829337075
-0,144725842921955
-0,14120084364982
-0,137624755833917
-0,134105031525485
-0,130746432970388
-0,127644903759233
-0,12488196918014
-0,12252006916938
-0,12059915703662
-0,119134799623698
-0,118117897942468
-0,117516021506619
-0,117276225201875
-0,117329105159716
-0,117593759102618
-0,117983254502524
-0,118410179495872
-0,118791858687973
-0,119054857469628
-0,119138469976988
-0,118996980506203
-0,118600597309081
-0,117935071418092
-0,117000121485648
-0,115806879334659
-0,114374642313694
-0,112727262183399
-0,110889513338534
-0,108883765750388
-0,106727242903757
-0,104430077429789
-0,101994294142877
-0,0994137599804103
-0,0966750514041564
-0,0937591101642808
-0,0906434947332514
-0,0873049921548529
-0,0837223362655364
-0,079878783621471
-0,0757643260608374
-0,0713773647228519
-0,066725729051502
-0,061826989466374
-0,0567080773435805
-0,0514042845382901
-0,0459577617221631
-0,0404156666307833
-0,0348281280401335
-0,029246188876495
-0,0237198741075245
-0,0182964991551816
-0,0130192968393837
-0,00792640009553865
-0,00305017870691269
0,00158310472475993
0,00595337814769997
0,0100466540143294
0,01385480616516
0,0173752925055272
0,0206108685481079
0,0235693140079711
0,0262631703792178
0,0287094655635042
0,0309293855356689
0,0329478452201836
0,0347929126333307
0,036495051978432
0,038086171562917
0,0395984887042663
0,0410632529237329
0,0425093968768259
0,0439622077760042
0,0454421270722414
0,0469637902398785
0,0485354102143189
0,0501585872515624
0,0518285960920152
0,0535351609719322
0,0552636840286565
0,0569968474589473
0,0587164691421631
0,0604054598247572
0,0620497111169391
0,0636397400939308
0,0651719293346105
0,0666492303209654
0,068081241130421
0,0694836227352518
0,070876877281399
0,0722845710380956
0,0737311387329881
0,0752394494494141
0,0768283428394257
0,0785103550191308
0,0802898447385568
0,0821617026103387
0,0841107814334157
0,0861121276886761
0,0881320280567757
0,0901298160794377
0,0920603188938162
0,0938767680627247
0,0955339568495207
0,0969914025095681
0,0982162683928621
0,0991858171703017
0,0998892018429817
0,100328452245054
0,10051857705594
0,10048676953108
0,100270773430482
0,0999165283070737
0,0994752653072388
0,0990002619419407
0,0985434842363172
0,0981523462354271
0,0978668005797783
0,0977169418754095
0,0977212602405991
0,0978856299910948
0,0982030627425616
0,0986542000442423
0,099208472437685
0,0998258131371868
0,100458787848174
0,101054988792042
0,10155954067212
0,10191757774984
0,102076572033445
0,101988419717129
0,101611223003196
0,100910733876567
0,0998614522648918
0,0984473910144704
0,0966625328440109
0,094511009601856
0,0920070323984936
0,0891745941243992
0,0860469557301175
0,0826659170372497
0,0790808644049411
0,075347583554392
0,071526827937572
0,0676826419797738
0,0638804541437624
0,060184975817222
0,0566579664058119
0,0533559499187255
0,0503279905827202
0,0476136514272111
0,0452412675079196
0,0432266623768965
0,0415724214304539
0,0402678089530288
0,0392893783430253
0,0386022796694832
0,0381622188710246
0,037917972772992
0,0378143181509008
0,0377951956827546
0,037806904602479
0,0378011140286836
0,0377374838726951
0,037585712031091
0,037326863841821
0,0369538916764016
0,0364713130296423
0,0358940796251733
0,0352457325645194
0,034555994095059
0,0338579904007271
0,0331853280993025
0,0325692573448372
0,0320361456107039
0,0316054590046792
0,0312884045846919
0,0310873312176419
0,0309959227278039
0,0310001507930101
0,0310798917930401
0,0312110568785195
0,0313680424507576
0,0315262824494158
0,0316646763814298
0,0317676783893374
0,0318268617664181
0,0318418176615774
0,0318203025209274
0,0317776114448045
0,0317352189709239
0,031718789628877
0,0317557131271302
0,0318723591510928
0,0320912714490312
0,0324285284138159
0,0328914873610825
0,0334771031466814
0,0341709708995791
0,034947190723805
0,0357690932562838
0,0365908033731747
0,0373595595734777
0,0380186528565115
0,0385108048537304
0,0387817734059476
0,0387839565533361
0,0384797638026904
0,0378445363547204
0,0368688244674961
0,0355598682949414
0,0339421757009333
0,032057143588495
0,0299617249390748
0,0277261987008285
0,0254311508220809
0,0231638193586499
0,0210139924042358
0,0190696729159172
0,0174127381831618
0,0161148232163273
0,0152336467779682
0,0148099767668685
0,0148653993392212
0,0154010150973487
0,0163971378845163
0,0178140195197791
0,0195935697495645
0,0216619875254912
0,0239331702265421
0,0263127243696058
0,02870236722
0,0310044857194973
0,0331266089797957
0,0349855542813973
0,0365110243600989
0,0376484651430324
0,0383610365544634
0,0386306021562917
0,0384577030830798
0,0378605442064215
0,0368730815516431
0,0355423554547764
0,0339252597377932
0,0320849698330366
0,0300872696883286
0,0279970169412193
0,0258749680964715
0,0237751514650306
0,0217429279880867
0,0198138225009826
0,0180131451333873
0,0163563595704121
0,0148500970843748
0,0134936675130387
0,0122808847745849
0,0112020079805122
0,0102456011005221
0,0094001341700736
0,00865518526984498
0,00800215144725312
0,00743443371087672
0,00694712068574764
0,00653625166360444
0,0061977870805659
0,0059264481297902
0,00571460379166654
0,00555138116297435
0,00542215356285713
0,0053085223307289
0,0051888560676338
0,00503939028997216
0,00483582698399902
0,00455531369090622
0,0041786316162896
0,00369238713564768
0,00309098492156331
0,00237816596274914
0,00156792020721974
0,00068462963628004
-0,000237640458809331
-0,00115671167151297
-0,00202465708980314
-0,00279081931234872
-0,003405276507363
-0,00382250249643039
-0,004004938658047
-0,00392619073398971
-0,00357358333623965
-0,00294984786839955
-0,00207378241177395
-0,000979799795670998
0,000283633851738594
0,00165658050211115
0,00307106089872336
0,00445509574289947
0,00573706934331956
0,0068501013403131
0,00773611093944767
0,00834928214360198
0,00865868569624729
0,00864987982206549
0,00832539180289862
0,00770406924827013
0,00681937642949805
0,00571679015204915
0,00445051494063812
0,00307978368717689
0,00166503384771623
0,00026424922476306
-0,00107026618174491
-0,00229446041906529
-0,00337429163887512
-0,00428658466053061
-0,00501897676705761
-0,00556901987130301
-0,0059425745935729
-0,00615168656074842
-0,00621217203429237
-0,0061411560491585
-0,00595480066240156
-0,00566643459557052
-0,0052852511704806
-0,00481568317051283
-0,00425749638327622
-0,00360657405695927
-0,00285629843305123
-0,00199937861369095
-0,00102993119216795
5,44050699731411E-05
0,00125054459186207
0,002548429581627
0,00393007945301518
0,0053693409528806
0,00683240356900907
0,00827907699164823
0,00966475889600622
0,010942957942511
0,0120681840355839
0,012998980094975
0,0137008501701996
0,0141488394794927
0,0143295430357817
0,0142423594359791
0,0138998621083556
0,0133272274908083
0,0125607329984269
0,0116454113967771
0,010632016469918
0,00957351217524125
0,00852133914224933
0,00752173497042114
0,00661238629642274
0,0058196706921989
0,005156706426065
0,00462237081525618
0,0042013775625776
0,00386542531087829
0,0035753495489489
0,00328413400583253
0,00294057152852698
0,00249331322481042
0,00189501229845733
0,00110625808626478
9,9007286001435E-05
-0,0011407474412977
-0,00261127870226511
-0,00429453434827264
-0,00615671604489257
-0,00815000213662619
-0,0102153073946094
-0,0122858961944872
-0,0142916022555307
-0,0161633619574557
-0,0178377428755901
-0,0192611465023163
-0,0203933845215925
-0,021210370159288
-0,0217057272068464
-0,0218911950773985
-0,0217957933982601
-0,0214637981718202
-0,0209516671210776
-0,020324128330763
-0,0196497081126369
-0,0189960165585221
-0,0184251292253503
-0,0179893990962054
-0,0177280043893649
-0,0176644866770568
-0,0178054635202353
-0,0181406152526837
-0,0186439526004419
-0,0192762771595829
-0,0199886572807597
-0,0207266642777802
-0,0214350539934425
-0,0220625413455655
-0,0225663036771255
-0,0229158638702207
-0,0230960455802916
-0,0231087579707679
-0,0229734515309929
-0,0227261839564754
-0,0224173385891691
-0,0221081398876948
-0,0218662031390138
-0,0217604320275061
-0,0218556317561334
-0,0222072327923401
-0,0228565185831599
-0,0238267195299363
-0,0251202771444604
-0,0267175007602845
-0,0285767403627867
-0,0306360903471221
-0,0328165284161166
-0,0350262896877562
-0,0371661862345338
-0,0391355134577127
-0,040838142085221
-0,0421883812705241
-0,0431162151802951
-0,0435715611242205
-0,0435272680906345
-0,0429806649953123
-0,041953571041182
-0,0404907885164761
-0,0386572029977612
-0,0365337095801042
-0,0342122596868597
-0,0317903759758364
-0,0293655094912579
-0,0270296122337789
-0,0248642706086169
-0,0229366936458812
-0,0212967791018791
-0,0199753964846698
-0,018983935462391
-0,0183150780302244
-0,0179446699280837
-0,0178344970197197
-0,0179357202948517
-0,0181926919179614
-0,0185468656471315
-0,0189405275565644
-0,0193201052087247
-0,0196388617330471
-0,0198588410944649
-0,0199519969187369
-0,0199005041356152
-0,0196963151567996
-0,0193400757138203
-0,0188395561963231
-0,0182077798761546
-0,0174610386638368
-0,0166169802200355
-0,0156929288212717
-0,0147045688963333
-0,0136650780029222
-0,0125847490791735
-0,0114710941678306
-0,0103293774142425
-0,00916348745997198
-0,00797703120268077
-0,00677451416874809
-0,00556246838044279
-0,00435039648233348
-0,00315141996083921
-0,00198254761571423
-0,000864515448900122
0,000178812208193903
0,00112145142730784
0,0019366519982084
0,00259849924917024
0,00308364538354201
0,00337303797826899
0,00345351034098585
0,00331910593154252
0,00297202626811108
0,00242311718839588
0,00169183997329445
0,000805709216895267
-0,000200784194011646
-0,00128771168356656
-0,00241162286860418
-0,00352772938795708
-0,0045922298157471
-0,00556463964643278
-0,0064099898511744
-0,00710076534179431
-0,00761846995781093
-0,00795472601673843
-0,00811184245933057
-0,0081028144447938
-0,00795074719682866
-0,00768772637306639
-0,00735318485182521
-0,00699184049819768
-0,00665130037125445
-0,00637944340736258
-0,00622170551179341
-0,00621839803103538
-0,00640219262839525
-0,00679590256166946
-0,0074106821687677
-0,00824475289940884
-0,00928274543301676
-0,010495723340555
-0,0118419246406087
-0,0132682240250819
-0,0147122814651744
-0,0161053037839103
-0,0173753065277386
-0,0184507264502395
-0,0192642028186179
-0,0197563214114962
-0,0198791012193058
-0,0195990028365541
-0,0188992510391905
-0,0177812928017587
-0,0162652556234214
-0,0143893277964285
-0,0122080491846541
-0,00978957400777211
-0,00721204093230296
-0,00455925479459103
-0,00191594270235609
0,000637110311438429
0,00302771894838941
0,00519642309812567
0,00709978204647154
0,00871258905113117
0,010028829905249
0,0110612977185995
0,0118398749122681
0,012408594750165
0,0128216904592666
0,013138922076739
0,0134205324504167
0,0137222186261126
0,0140905096074334
0,0145589150050436
0,0151451528921873
0,0158496832646503
0,0166556721747335
0,0175303989145637
0,0184280037050834
0,0192933656647274
0,020066809319762
0,0206892702368373
0,0211075121981269
0,0212789829264539
0,0211759231686228
0,0207884026529164
0,0201260411132163
0,0192182761508677
0,0181131535683235
0,0168747305349393
0,0155792881580236
0,0143106391621489
0,0131548814398225
0,012194984321019
0,0115055991741698
0,011148459678489
0,0111686826813253
0,0115922031516772
0,0124244833081409
0,0136505346538787
0,0152361909252031
0,0171304780840425
0,019268851681014
0,0215770178196954
0,0239750251925548
0,0263813135923534
0,0287164280124376
0,0309061538740176
0,0328838932169896
0,0345921777016893
0,0359832951088874
0,0370190846621193
0,0376700264050285
0,0379138054821717
0,0377335693828541
0,0371161125901761
0,0360502180227938
0,0345253593643102
0,0325309256195893
0,0300560731346537
0,0270902458422957
0,0236243371460299
0,0196524020920609
0,0151737713986944
0,0101953738127521
0,0047340434078375
-0,00118142412156469
-0,00750869666938029
-0,0141910199700667
-0,0211571896996623
-0,0283224983580762
-0,0355907123133524
-0,042857067065028
-0,0500121998739515
-0,0569468725695941
-0,0635572775354299
-0,0697506701164273
-0,0754510339597184
-0,0806044643838437
-0,0851839502827569
-0,0891932480258319
-0,0926695711496213
-0,0956848663743756
-0,0983455077531781
-0,100790313994278
-0,103186875827349
-0,105726266816937
-0,108616297877158
-0,112073558297665
-0,116314559682496
-0,121546359395265
-0,127957082944015
-0,135706787011848
-0,144919104381708
-0,155674087818985
-0,168002622467128
-0,181882707310293
-0,197237818984102
-0,213937470192551
-0,231799965744457
-0,250597248055088
-0,270061617430562
-0,289894017060271
-0,309773494280175
-0,329367393235556
-0,348341803098085
-0,366371782333623
-0,383150903248336
-0,398399710354951
-0,411872757508261
-0,423363977268315
-0,432710235487062
-0,439793027965186
-0,444538377330997
-0,446915080596604
-0,446931535546098
-0,444631432883767
-0,440088638161438
-0,433401601863977
-0,42468762837149
-0,414077307089958
-0,401709365480293
-0,387726148528601
-0,37226986746706
-0,3554796973318
-0,337489742921473
-0,31842783978764
-0,298415113853027
-0,277566191731001
-0,255989934129433
-0,233790556087974
-0,211068998478632
-0,187924422880615
-0,164455714019405
-0,140762887951697
-0,116948318027193
-0,0931177029622684
-0,0693807115623326
-0,0458512469816093
-0,0226472809331525
0,00010978351318646
0,0222962511900337
0,0437877919014865
0,0644616107367293
0,0841991008035524
0,102888915784794
0,120430363923242
0,136736987715678
0,151740158065439
0,165392481794509
0,177670801247579
0,188578557916987
0,198147301473656
0,206437153004394
0,213536076746833
0,219557876642204
0,224638909256332
0,228933588174322
0,23260884073399
0,235837759074533
0,238792756923748
0,241638594840803
0,244525664425278
0,247583922640301
0,250917839385842
0,254602665664655
0,258682249394518
0,263168526637378
0,268042705044682
0,273258042190244
0,278744013192015
0,284411568355117
0,290159110174248
0,295878775819641
0,301462599806766
0,306808152856795
0,311823305168366
0,316429840984256
0,320565749741508
0,324186128855716
0,327262745002209
0,329782405201173
0,331744377394818
0,333157165345879
0,334034979518463
0,33439425163924
0,334250516157108
0,333615929810361
0,332497626372479
0,330897014682634
0,328810032748859
0,32622827795417
0,323140851658185
0,319536693050097
0,315407137387317
0,31074842084371
0,305563868572322
0,299865542194201
0,293675183291997
0,287024364283501
0,279953839668286
0,272512170961262
0,264753769776026
0,256736558679658
0,248519483411122
0,240160119806476
0,231712603691413
0,223226073881585
0,214743761359816
0,206302787552057
0,197934658541652
0,189666367704486
0,18152195409168
0,173524314435033
0,165697037882028
0,158066027409351
0,150660690916828
0,143514526538878
0,13666498677292
0,130152578879378
0,124019237644081
0,118306083437263
0,113050746094844
0,108284486891256
0,10402938162608
0,100295834425982
0,0970806733397908
0,094366036563807
0,0921191958029856
0,0902933863192766
0,0888296284817014
0,0876594406970748
0,0867082660766742
0,0858993720429821
0,0851579389697759
0,0844150347748872
0,083611178866241
0,0826992304573968
0,081646390241532
0,0804351760275403
0,0790633159342286
0,0775425899149983
0,0758967342138133
0,0741585966770463
0,0723667874966353
0,0705621052810734
0,0687840296091562
0,0670675578121742
0,0654406272033019
0,0639223078644685
0,0625218806086184
0,0612388362051442
0,0600637523437515
0,0589799310313793
0,05796561744311
0,0569965767833211
0,0560487819423168
0,0551009632486276
0,0541367920262167
0,0531465096339711
0,0521278691873649
0,0510863229228117
0,0500344580738887
0,0489907518131967
0,0479777752924996
0,0470200229197579
0,0461415719405224
0,0453637869415535
0,0447032737050493
0,0441702583419759
0,0437675239001043
0,0434899821094143
0,043324897901169
0,043252724549119
0,043248453289529
0,0432833380140804
0,0433268268603942
0,0433485206158026
0,0433199834603815
0,043216253703159
0,0430169382066141
0,0427068202651842
0,042275961993232
0,0417193335506427
0,0410360476595857
0,0402283142904674
0,0393002536163152
0,0382567132371744
0,0371022277226878
0,0358402358035855
0,0344726356686782
0,0329997156479376
0,0314204507726342
0,0297331103751179
0,027936082945227
0,0260287961612323
0,0240125955389161
0,0218914462412928
0,0196723393927073
0,0173653152269824
0,0149830575466417
0,0125400630230448
0,0100514397799744
0,0075314371136133
0,00499184698885565
0,00244044374322511
-0,00012036193451102
-0,00269448683148905
-0,00529261473979892
-0,00793201120297264
-0,0106356669555993
-0,013430785058861
-0,0163466902151249
-0,0194122982140657
-0,0226533331900975
-0,0260895153964249
-0,029731958820562
-0,0335810140688477
-0,0376247672644425
-0,0418383618322798
-0,0461842503078226
-0,0506134125005763
-0,0550675002797891
-0,0594817942672004
-0,0637887900965957
-0,0679221773491099
-0,0718209373818953
-0,0754332701798106
-0,0787200664521407
-0,0816576690313672
-0,0842397149835315
-0,0864779129353932
-0,0884016839791976
-0,0900566733754905
-0,0915022181172128
-0,0928079264469244
-0,0940495845360592
-0,0953046487267642
-0,0966476063445142
-0,0981454929723122
-0,0998538396216027
-0,101813291235548
-0,104047091402333
-0,106559570905306
-0,109335714170563
-0,112341812304893
-0,115527148553377
-0,118826605420366
-0,122164035408335
-0,125456201455494
-0,128617069867802
-0,131562228082106
-0,134213201425591
-0,136501455935025
-0,138371896624036
-0,139785700427173
-0,140722358422488
-0,141180840921735
-0,14117983988911
-0,140757084365748
-0,139967764840655
-0,138882140696931
-0,137582439969528
-0,136159191736627
-0,134707157581889
-0,133321048734542
-0,132091228703273
-0,131099606493955
-0,130415921931256
-0,130094611547754
-0,130172420614729
-0,13066689436081
-0,131575839997375
-0,132877802302929
-0,134533541317868
-0,136488443957689
-0,138675745336196
-0,141020383944404
-0,143443271243403
-0,145865724219594
-0,148213791998879
-0,150422206919824
-0,152437707649997
-0,154221516890689
-0,15575080748927
-0,157019055593357
-0,158035253841854
-0,158822036541075
-0,159412846721018
-0,159848346092457
-0,160172327639874
-0,160427431982313
-0,160650988943284
-0,160871302692011
-0,161104671789943
-0,161353385792564
-0,161604870844567
-0,161832072729244
-0,161995073181275
-0,162043840900169
-0,161921929890987
-0,1615708615479
-0,160934869467815
-0,15996565217805
-0,158626771822925
-0,156897357349461
-0,154774817636049
-0,152276339974716
-0,149439037109893
-0,146318704955872
-0,142987255518195
-0,139528987484838
-0,13603594281877
-0,132602664840443
-0,129320716603341
-0,126273334660941
-0,123530581580296
-0,121145322025567
-0,119150285270771
-0,117556396775906
-0,116352469495152
-0,115506249179831
-0,114966714558
-0,11466744991071
-0,114530840197999
-0,114472791988833
-0,114407659698508
-0,114253056754713
-0,11393425410162
-0,113387910974736
-0,112564940817094
-0,111432383297545
-0,109974225895856
-0,108191189803664
-0,106099559805088
-0,103729192181619
-0,101120875504429
-0,0983232448305593
-0,0953894599974609
-0,0923738544209643
-0,0893287439989601
-0,0863015591814535
-0,0833324300567943
-0,0804523176481166
-0,0776817474106025
-0,0750301656518396
-0,0724959080696161
-0,0700667429525654
-0,0677209302492551
-0,0654287215881628
-0,063154214872989
-0,0608574695282085
-0,0584967840452981
-0,0560310354923144
-0,053421980693421
-0,0506364207298385
-0,0476481344631157
-0,0444394933420581
-0,0410026793890229
-0,0373404414712681
-0,0334663420993585
-0,0294044680495941
-0,0251886026733397
-0,0208608849105881
-0,016470008390408
-0,0120690417980369
-0,00771297687168433
-0,00345613085857031
0,00065045595782065
0,00456148156141267
0,00823956009339821
0,0116569876171314
0,0147969898109272
0,0176543763632394
0,0202355635365111
0,0225579664306405
0,024648802952988
0,0265433893022787
0,0282830389656283
0,0299127012941487
0,0314784898142977
0,0330252535043906
0,0345943362288917
0,0362216511839082
0,037936170277404
0,0397588952109513
0,0417023405249386
0,0437705220793643
0,0459594103824272
0,0482577794858561
0,0506483609459393
0,0531091998974141
0,055615107105267
0,058139106530788
0,0606537912988373
0,0631325201292594
0,0655504090141402
0,0678850966878114
0,0701172848084899
0,0722310726000068
0,0742141193519544
0,0760576756454397
0,0777565252051865
0,079308874340792
0,0807162161630649
0,0819831837831786
0,0831173925021647
0,0841292576299725
0,0850317639988228
0,0858401570189134
0,0865715243727266
0,0872442425493627
0,0878772731429791
0,0884893092070171
0,0890977904577873
0,0897178257627869
0,0903610799572656
0,0910346973704513
0,0917403445539377
0,0924734580153611
0,0932227783624648
0,0939702399237416
0,0946912652050615
0,0953554877724519
0,0959278972538182
0,096370368542954
0,0966435066465465
0,0967087115979644
0,0965303469266173
0,0960778822708207
0,0953278771550406
0,094265679229548
0,0928867260333238
0,0911973634210249
0,0892151242846371
0,0869684456429888
0,0844958377814718
0,0818445530544344
0,0790688315366268
0,0762278237401123
0,0733833054990959
0,0705973061067885
0,0679297679012244
0,0654363446273824
0,0631664286219368
0,0611614752848582
0,0594536698140376
0,0580649582074228
0,0570064442747642
0,0562781385428407
0,0558690345590099
0,0557574834608373
0,0559118383027803
0,0562913442851847
0,0568472579631729
0,0575241856015651
0,0582616359555749
0,05899578395913
0,0596614376826233
0,0601941907957687
0,0605327268104066
0,0606212207051227
0,0604117600924318
0,0598666845560491
0,0589607212448792
0,057682780469659
0,0560372698481938
0,0540447918173751
0,0517421084494457
0,0491812896867464
0,046428005206125
0,0435589737134977
0,0406586429013973
0,0378152340076626
0,0351163417870354
0,0326443284954715
0,0304717843753172
0,0286573431279147
0,0272421362934639
0,0262471442523334
0,0256716544447235
0,0254929719220997
0,0256674477398609
0,0261328025787451
0,0268116329193277
0,0276159020603817
0,028452145061982
0,029227061345289
0,0298531359199026
0,0302539230437987
0,0303686455314631
0,0301558077853114
0,0295955877214964
0,0286908571075267
0,0274667750066505
0,0259689977644281
0,0242606437339147
0,0224182345292922
0,0205269007841757
0,0186751844089965
0,016949788219689
0,0154306166778145
0,0141864195167986
0,0132712963783984
0,0127222500408892
0,0125578943764986
0,0127783375203481
0,0133661776497358
0,0142884745926057
0,0154995005586068
0,0169440315990825
0,0185609202493241
0,0202866897048943
0,0220589095971117
0,0238191501165604
0,0255153608152372
0,027103577941534
0,0285489243059143
0,0298259232053034
0,0309181981929232
0,031817669716195
0,0325233853884008
0,0330401317581745
0,0333769722272672
0,0335458398257308
0,033560287592531
0,0334344667846165
0,0331823679176228
0,0328173255776404
0,0323517585146161
0,0317970944911693
0,0311638165118962
0,0304615640933182
0,0296992297095927
0,028885004977198
0,028026351203332
0,0271298916930317
0,0262012455618836
0,0252448416976807
0,0242637643723625
0,023259686984339
0,0222329466135735
0,0211827996313436
0,0201078787388701
0,0190068466028823
0,0178792135562346
0,0167262598643931
0,0155519801092084
0,0143639513253525
0,0131740199943883
0,01199870732466
0,010859247765065
0,00978120161990258
0,0087936169715827
0,00792775597373676
0,00721544229385652
0,00668712606580799
0,00636979618878416
0,00628489362267904
0,00644639073496715
0,00685919908650039
0,0075180509270226
0,00840696908768852
0,00949939819472439
0,0107590205635416
0,0121412269764653
0,0135951604025022
0,0150662042014411
0,0164987496160113
0,0178390537170259
0,0190379905732998
0,0200535060517451
0,0208526096611426
0,0214127731727805
0,0217226521841041
0,0217820992081501
0,0216014907291978
0,0212004413190435
0,0206060211452497
0,0198506255685934
0,0189696646498776
0,0179992451891821
0,0169740086295294
0,0159252663013503
0,0148795416271472
0,0138575904121583
0,0128739289714248
0,0119368593786265
0,0110489449982957
0,0102078604518037
0,00940752011605734
0,00863937901225952
0,00789379928124854
0,00716138325349146
0,00643418850964105
0,00570675900660657
0,00497692681013354
0,00424635894335668
0,00352084141492245
0,00281030635849956
0,00212861784521134
0,0014931374651233
0,000924093037805618
0,000443774024017272
7,55768645667244E-05
-0,000157076015281034
-0,000231917289535574
-0,000129084500081328
0,00016760069600253
0,000669372796997713
0,00138134174113067
0,00230146014318212
0,00341971383574735
0,00471761248456521
0,00616805185789811
0,00773560651758685
0,00937729106401681
0,0110438003592093
0,0126812060659015
0,0142330509401472
0,0156427467807149
0,0168561503004512
0,0178241669189199
0,0185052186189667
0,0188674108198037
0,018890245800966
0,0185657564130296
0,0178989720559705
0,0169076763452864
0,0156214685870278
0,0140801944755334
0,0123318603788321
0,0104301854454207
0,00843197254819073
0,00639448990489099
0,00437304872008091
0,00241893871375263
0,000577844968689536
-0,00111118021268377
-0,00261617297177967
-0,0039121806353547
-0,0049807430774115
-0,00580906571595791
-0,00638904359013062
-0,0067163043447005
-0,00678942706479656
-0,00660946458686381
-0,006179851981869
-0,00550672794835154
-0,0045996347862256
-0,00347250313551401
-0,00214477650039781
-0,000642493872779985
0,00100086867139238
0,00274399174091422
0,00453790837104048
0,0063269193501174
0,0080502794943143
0,009644628729002
0,0110470605268475
0,0121986433455733
0,0130481463354224
0,0135556759919088
0,013695911203076
0,0134606335715679
0,0128602885906309
0,0119243789714528
0,0107005791576726
0,009252562535913
0,00765664102045626
0,00599742072270991
0,00436276748215312
0,00283844337726876
0,00150281305364934
0,000422022524711125
-0,000353978180450287
-0,000794261480349143
-0,000888382940557616
-0,000646373456620045
-9,72823200018222E-05
0,000713588246029285
0,00172850733636623
0,0028818616365805
0,00410503018407085
0,00533117296283973
0,0064995352667894
0,00755892260918428
0,00847008515105232
0,0092068582489953
0,00975602659488603
0,0101160020036767
0,0102945174461846
0,010305631551129
0,0101663995969962
0,00989359289658531
0,00950083581286581
0,00899647953085275
0,00838244894515204
0,00765419162658392
0,00680173636401657
0,00581174529237404
0,00467033052596385
0,00336631509814743
0,00189455841525268
0,000258944999235232
-0,00152534503153888
-0,00343060553314836
-0,00541664090634213
-0,00743217523043792
-0,00941760292249155
-0,011308911104952
-0,0130424764669337
-0,0145603361141183
-0,0158154634283541
-0,0167765538853176
-0,0174318458104223
-0,0177915665856223
-0,0178887009191451
-0,0177779156178138
-0,0175326328595015
-0,0172404072017722
-0,0169969156636653
-0,0168990009784196
-0,0170373032738641
-0,0174890658343746
-0,0183117010544728
-0,0195376525319423
-0,0211709923314404
-0,0231860569193706
-0,0255282627479585
-0,0281170670151755
-0,0308508659854808
-0,0336134674004042
-0,0362816483474531
-0,0387332260756504
-0,0408550334940021
-0,0425502059949
-0,0437442498306175
-0,0443894682878389
-0,0444674604821197
-0,0439895661759181
-0,0429952945569397
-0,0415489311633266
-0,0397346519605383
-0,0376505760884997
-0,0354022513153748
-0,0330960848508219
-0,0308332070495294
-0,0287041906897857
-0,0267849514135261
-0,0251340355823634
-0,0237913719039784
-0,022778434805929
-0,0220996521168732
-0,0217447969096974
-0,0216920405547709
-0,0219113152620092
-0,0223676403765716
-0,0230241049529443
-0,0238442641940029
-0,0247937915279409
-0,0258413222391571
-0,0269585189913432
-0,0281194750271635
-0,0292996392909477
-0,0304744931944755
-0,031618227676877
-0,032702660742499
-0,0336966016141697
-0,0345658122433296
-0,0352736462614552
-0,0357823669566723
-0,036055067360209
-0,0360580447373222
-0,0357634253861921
-0,0351517988667306
-0,034214606879734
-0,0329560420536464
-0,0313942447949536
-0,0295616389549127
-0,0275043145912229
-0,0252804425340182
-0,0229577841843561
-0,0206104342995531
-0,0183149983038268
-0,0161464537761288
-0,0141739744801246
-0,0124570025697998
-0,0110418401129191
-0,00995899626760892
-0,00922147427499107
-0,00882411712872823
-0,00874405742346093
-0,00894224102286707
-0,00936592138970393
-0,00995195683887227
-0,0106306910341915
-0,0113301610992361
-0,0119803599014626
-0,0125172801469908
-0,0128864873710425
-0,0130460048995396
-0,0129683435285697
-0,0126415683126285
-0,0120693601914109
-0,011270096731457
-0,0102750395258222
-0,00912577170594508
-0,00787107405888114
-0,00656345972460703
-0,00525560366207023
-0,00399690332944505
-0,00283039171678488
-0,0017901943923984
-0,000899680854936566
-0,000170410254491875
0,000398084050784436
0,000817683765809734
0,00111031629368669
0,0013059432775063
0,00144006361189871
0,00155091604806102
0,00167658194141391
0,00185219026068575
0,00210741483913745
0,00246442915166031
0,00293644854831477
0,00352694650280978
0,00422958315939504
0,00502883464946292
0,00590126377270964
0,00681732987106129
0,00774360093280116
0,0086452063301116
0,00948835557316474
0,0102427477259268
0,0108837073865771
0,0113939053885822
0,0117645537962308
0,0119960029797404
0,012097710783374
0,0120875970084548
0,0119908376765948
0,0118381900084577
0,0116639684123977
0,0115038122118673
0,0113923962161074
0,0113612351525105
0,0114367227629464
0,0116385270199848
0,0119784360594488
0,0124597171245422
0,0130770154152148
0,0138167837718235
0,0146581999877523
0,0155744985136342
0,01653461921464
0,0175050590681005
0,0184518040805313
0,0193422184792983
0,0201467760751006
0,0208405337126142
0,0214042676078459
0,0218252184532786
0,0220974185967699
0,0222216024248384
0,0222047274622412
0,0220591569603211
0,0218015735360162
0,0214517067626019
0,0210309649255273
0,0205610623527565
0,020062729071039
0,0195545796872217
0,0190522043105968
0,0185675271282036
0,0181084591942379
0,0176788523343898
0,0172787419871826
0,0169048493428648
0,0165512981358838
0,0162104895391614
0,0158740702026374
0,0155339237765949
0,0151831152859559
0,0148167203749671
0,0144324774573272
0,0140312099404067
0,0136169775350299
0,013196929846987
0,0127808515157597
0,0123804055957971
0,0120081000940819
0,0116760208738602
0,0113943917173946
0,0111700382989726
0,0110048461529893
0,0108943123908633
0,0108262959286222
0,0107800703839499
0,0107257769270187
0,0106243607818613
0,0104280547652733
0,0100814466812754
0,00952313547998335
0,00868794531547963
0,00750962890161223
0,00592395414233614
0,003872033442986
0,00130372596131665
-0,00181907817651424
-0,00551949384325053
-0,00980319867934016
-0,0146567010682529
-0,0200464806508488
-0,0259191254837546
-0,0322025411149426
-0,0388082498223374
-0,04563473611844
-0,0525717309800483
-0,0595052660356253
-0,0663232740887259
-0,0729214676208422
-0,0792091955556229
-0,0851149631440059
-0,0905913019654333
-0,0956186973556107
-0,100208318519879
-0,104403350564888
-0,108278794960673
-0,111939681989899
-0,115517721233038
-0,119166499398188
-0,123055413930025
-0,127362601152639
-0,132267174933336
-0,137941132512321
-0,144541305680523
-0,152201736529446
-0,161026837411036
-0,171085655683723
-0,182407507648372
-0,194979176189621
-0,208743787312534
-0,223601396758855
-0,239411234247053
-0,255995474451395
-0,273144335078808
-0,290622246936681
-0,308174801421384
-0,325536158855885
-0,342436596904552
-0,358609890945675
-0,373800245873756
-0,387768538491394
-0,400297678082055
-0,411196946250576
-0,420305232108642
-0,427493132061691
-0,432663932166472
-0,43575353328999
-0,436729413975177
-0,435588752647024
-0,432355849886147
-0,427079003798667
-0,419826998091695
-0,410685364508236
-0,399752579694096
-0,387136352001006
-0,372950146285924
-0,357310084149141
-0,340332342500763
-0,322131153990311
-0,302817487700124
-0,282498457029824
-0,261277463802828
-0,239255044077837
-0,216530333612438
-0,193203022101467
-0,169375618712963
-0,145155811294065
-0,120658672366275
-0,0960084510014755
-0,071339694471974
-0,0467974696297247
-0,0225365020986641
0,00128087963241694
0,0244880215278102
0,0469183701979946
0,0684108714964159
0,0888160644679611
0,108002505436108
0,125863090165355
0,142320804360806
0,157333430178916
0,17089677230792
0,183046041706915
0,193855145021015
0,203433766454668
0,211922286807398
0,219484749501088
0,226300242368471
0,232553203024026
0,238423262071061
0,244075301574573
0,249650418698152
0,255258442741447
0,260972559053935
0,26682645112777
0,272814192474746
0,278892916245904
0,284988078906774
0,291000931930858
0,2968176392956
0,302319343799433
0,307392403883685
0,311938002577034
0,315880374154816
0,319172999570593
0,321802280837473
0,323788404908997
0,325183333081085
0,326066084178842
0,326535699615199
0,326702467593382
0,326678126469065
0,326565851620688
0,326450848995829
0,326392330187211
0,326417532432329
0,326518281626632
0,326650391054961
0,326735960135549
0,326668404952595
0,326319834831046
0,325550204396639
0,324217533293837
0,322188406692963
0,319347954658605
0,315608557691697
0,310916634309344
0,30525702455661
0,298654677081922
0,291173560432428
0,282912933835887
0,274001311539947
0,264588622067565
0,25483718690559
0,244912213434006
0,234972510353421
0,225162091181629
0,215603237987948
0,206391462779473
0,197592640293411
0,189242407741946
0,181347749295128
0,173890520062046
0,166832528508869
0,160121697270603
0,153698766270903
0,147503991211559
0,141483323224473
0,135593626627607
0,129806593270539
0,124111133813172
0,118514157316512
0,113039779565905
0,107727117394447
0,102626922402868
0,0977973768359109
0,0932994135395351
0,0891919303651709
0,0855272491233809
0,0823471245415891
0,0796795455609809
0,077536496594004
0,0759127672079436
0,0747858217751446
0,0741166716116183
0,0738516353095897
0,0739248309240575
0,0742612173509255
0,0747799909896456
0,0753981457362106
0,0760340167519105
0,0766106481416624
0,0770588484999478
0,0773198235002021
0,077347299272262
0,0771090729863781
0,0765879475054391
0,0757820255593574
0,0747043565599167
0,0733819470735935
0,0718541652146314
0,0701705905084085
0,0683883842503978
0,066569280389581
0,0647763220850575
0,0630704922307716
0,0615074048186171
0,0601342352860417
0,0589870694141125
0,0580888398838427
0,0574479961877069
0,0570580172425782
0,056897828134075
0,0569331255581722
0,0571185545538321
0,0574006167142389
0,0577211324233783
0,0580210319771275
0,0582442174183882
0,0583412222572008
0,0582724022648102
0,0580104178363972
0,0575418157527392
0,0568675824586872
0,0560026175120002
0,0549741586629932
0,0538192723772427
0,0525815985838467
0,0513075995710241
0,0500426047849093
0,0488269619791605
0,0476925987006161
0,046660266729442
0,0457376881074465
0,0449187491852316
0,0441838045966004
0,0435010633494746
0,0428289418178266
0,0421191907655753
0,0413205421425911
0,0403825814465188
0,039259536196979
0,0379136816696028
0,0363181003217632
0,0344585881089733
0,0323345739794307
0,0299590018363004
0,0273572098789872
0,02456492315789
0,0216255444752608
0,0185869808189417
0,0154982731284609
0,0124063043213963
0,00935284405197414
0,00637215077087649
0,00348929611885159
0,000719308982666949
-0,00193283712930325
-0,00447144263057965
-0,00690862134390315
-0,00926232902588011
-0,0115540851464488
-0,0138066086761654
-0,0160415848721043
-0,0182777570364199
-0,020529497765918
-0,0228059624920126
-0,0251108692546954
-0,0274428882515327
-0,0297965683148755
-0,0321636800312045
-0,0345348207134364
-0,0369011075308545
-0,0392557829154788
-0,0415955704945325
-0,0439216483644673
-0,0462401464231442
-0,048562121665011
-0,0509030153426852
-0,0532816440309036
-0,055718818676681
-0,0582357180430324
-0,0608521630153422
-0,0635849445744408
-0,0664463507615056
-0,0694430176766191
-0,0725751987044533
-0,0758365076970943
-0,0792141494222196
-0,082689607974174
-0,086239724830891
-0,0898380660827995
-0,0934564557508494
-0,0970665407599831
-0,100641253833655
-0,104156053004412
-0,107589839362427
-0,110925485926483
-0,114149947348911
-0,11725395933708
-0,120231374812682
-0,123078217685499
-0,125791561811963
-0,128368359973779
-0,130804354012959
-0,133093192041648
-0,13522586215883
-0,137190525635114
-0,138972798071681
-0,140556487327725
-0,141924755157867
-0,143061628937942
-0,1439537538479
-0,144592247547499
-0,144974501184727
-0,145105764355443
-0,145000358286602
-0,144682381003237
-0,144185799530082
-0,143553865307062
-0,14283783717347
-0,142095048094875
-0,141386403465676
-0,140773446364713
-0,140315164853048
-0,140064744926545
-0,140066487509746
-0,140353107236667
-0,140943614137694
-0,14184194734793
-0,143036484354041
-0,14450049293057
-0,146193529553448
-0,148063722099016
-0,150050810779046
-0,15208976428288
-0,154114742347391
-0,156063145173759
-0,157879476930932
-0,159518756509789
-0,160949233820534
-0,162154212949184
-0,16313284172686
-0,163899796874476
-0,164483870054029
-0,164925537504779
-0,165273668876396
-0,165581593986316
-0,165902794787694
-0,166286520021497
-0,166773629394408
-0,167392961653833
-0,168158487288018
-0,16906745391746
-0,170099664470181
-0,17121794972066
-0,17236981343533
-0,173490146246454
-0,174504829533268
-0,175334988512932
-0,175901609054835
-0,176130208685613
-0,175955250591731
-0,175324010177733
-0,174199645199653
-0,172563279407529
-0,170414981383341
-0,167773599297859
-0,164675492519089
-0,161172276292986
-0,157327760390755
-0,153214311960554
-0,148908903369778
-0,144489115738692
-0,140029357970438
-0,135597530971727
-0,131252320543872
-0,127041244509585
-0,122999515313672
-0,119149714268686
-0,115502213375335
-0,112056230196043
-0,108801364521425
-0,105719445032847
-0,102786510775595
-0,0999747652538467
-0,0972543680177352
-0,094594966129986
-0,0919669113168645
-0,0893421528967675
-0,0866948368133285
-0,0840016729071904
-0,0812421525847635
-0,0783987053855832
-0,0754568752449098
-0,0724055768310661
-0,0692374620350052
-0,065949390567399
-0,0625429615046827
-0,0590250296255771
-0,0554081062446477
-0,0517105328784305
-0,047956319975896
-0,0441745629213458
-0,0403983825111698
-0,0366633841581157
-0,0330056846619471
-0,0294596117484055
-0,0260552333273168
-0,0228159142449843
-0,0197561226274061
-0,0168797115060645
-0,0141788820802781
-0,0116339927089791
-0,00921431500484092
-0,00687976001090882
-0,00458351006393347
-0,00227540366461009
9,41598569121666E-05
0,00257009346515038
0,00518861184497155
0,00797368774100081
0,0109343062815246
0,0140627972597769
0,0173344458935237
0,0207084808229445
0,02413042250258
0,0275356558291976
0,0308539787286892
0,0340147840825996
0,0369524651357612
0,0396116014367208
0,0419514875117894
0,0439496104725496
0,0456037626672722
0,0469325849242484
0,0479744656829933
0,0487848600863766
0,0494322286138319
0,0499929148658951
0,0505453757317889
0,0511642357354818
0,0519146553036881
0,0528474781687943
0,0539955580517554
0,0553715648340255
0,0569674444145148
0,0587555655585729
0,0606914437612216
0,062717799153472
0,0647695944564861
0,0667796195641187
0,0686841482200894
0,070428192641645
0,0719699232916178
0,0732838990792062
0,074362860660698
0,0752179662689294
0,0758774841626129
0,0763840863954458
0,0767910038263523
0,0771573924314858
0,0775433187748379
0,0780047938055732
0,0785892680895939
0,0793319507133323
0,0802532338503965
0,081357403307123
0,0826327017618713
0,0840526961176474
0,0855787933732127
0,0871636595688413
0,0887552306482781
0,090300967084559
0,0917519977209175
0,0930668215516181
0,0942142857351708
0,0951756284191709
0,0959454589791962
0,0965316382132186
0,096954109061105
0,0972428073597355
0,0974348460919754
0,0975712113593084
0,0976932316434733
0,0978390836532683
0,0980405798073308
0,0983204474568567
0,0986902626513476
0,0991491466267752
0,0996832763162161
0,10026620576441
0,100859947246514
0,1014167219258
0,101881261582566
0,102193525567826
0,102291689879305
0,102115266407169
0,101608217747506
0,100721944126594
0,0994180317062744
0,0976706641014629
0,0954686102876337
0,0928167119458616
0,0897368021905355
0,0862679967061449
0,0824663091417613
0,0784035568675145
0,0741655423390507
0,0698495203209774
0,0655609922578165
0,0614099053719436
0,0575063738601776
0,0539560801204048
0,050855551841237
0,0482875421305775
0,0463167607244228
0,044986211169273
0,0443143789696654
0,0442934875251688
0,0448889921919871
0,0460404196083083
0,0476635827525862
0,0496541168343541
0,0518921929375857
0,0542481820333945
0,0565889683588396
0,0587845546555784
0,0607145677795502
0,0622742655854828
0,0633796666714251
0,0639714732084699
0,0640175310622781
0,0635136659493954
0,0624828428329285
0,0609727101808715
0,0590517024007486
0,0568039740526633
0,0543235203996928
0,0517078939593925
0,0490519514468299
0,0464420577754105
0,0439511340759243
0,0416348681665541
0,0395293140137011
0,0376499988715215
0,0359925416687692
0,0345346730688281
0,0332394455082795
0,0320593384329489
0,0309409062905023
0,0298295887500197
0,0286743057321128
0,0274314931278403
0,0260682949911415
0,0245647087827558
0,0229145745313838
0,0211253981814442
0,0192170953533588
0,0172198261739847
0,0151711579378347
0,0131128351409798
0,0110874530783145
0,00913532136291961
0,00729176939084565
0,00558509108378213
0,00403525700059077
0,00265344506043024
0,00144236401749894
0,000397273560644865
-0,00049245233176893
-0,00124141168377221
-0,00186612233134315
-0,00238304077717624
-0,00280683928181945
-0,00314908922267228
-0,00341744749814303
-0,00361538506437192
-0,00374243864524964
-0,00379491412246756
-0,0037669281166085
-0,00365164659954065
-0,00344256815425801
-0,00313470511194466
-0,00272553679845961
-0,00221564258971558
-0,00160896420600001
-0,000912691800437087
-0,00013681181133413
0,000706608452611659
0,00160429784359544
0,00254270459054685
0,00350885056420698
0,0044910153144353
0,00547917410058174
0,00646514799107484
0,00744246225255968
0,00840594711544092
0,00935114815018974
0,0102736380658676
0,0111683348789792
0,0120289315516064
0,0128475293254065
0,0136145424761496
0,0143189088878356
0,0149486024446522
0,0154914041820933
0,0159358539640526
0,0162722772999735
0,016493766156552
0,0165969903544091
0,0165827280727154
0,0164560292489877
0,0162259619065451
0,0159049350799761
0,0155076385564796
0,0150496841825062
0,0145460711563591
0,0140096242985031
0,01344956652364
0,0128703828187817
0,0122711127566893
0,0116451733677805
0,0109807670840929
0,0102618747157018
0,00946977618783076
0,00858498759322465
0,00758945736922318
0,00646883178294811
0,00521458393032745
0,00382580313394747
0,00231046321144914
0,000686027100636157
-0,00102070145407089
-0,00277450558255557
-0,00453342177480254
-0,00625103953048423
-0,00787927121992482
-0,00937138494915694
-0,0106850661199761
-0,011785266007627
-0,012646608892323
-0,0132551620298075
-0,0136094222785363
-0,0137204352348713
-0,0136110319134058
-0,0133142383538492
-0,0128709789998967
-0,0123272497395378
-0,0117309764948644
-0,0111287970517598
-0,0105630058305653
-0,0100688837368807
-0,00967260003111474
-0,00938982369913824
-0,00922512272810204
-0,00917216625388099
-0,00921468229816955
-0,00932806801059739
-0,00948150442200284
-0,00964039709061659
-0,00976894960059813
-0,00983267903989459
-0,00980070025727699
-0,00964763635346784
-0,00935505300999872
-0,00891235961553259
-0,00831716628761488
-0,00757512846860369
-0,00669934615530856
-0,00570941023061411
-0,00463020224633675
-0,00349055606670608
-0,00232188098019542
-0,00115682829018888
-2,80598894722447E-05
0,00103284870004025
0,00199636339587963
0,00283581821149237
0,00352814114792142
0,00405451280168762
0,00440098810155777
0,00455910023995544
0,00452644795105345
0,00430724537157972
0,00391279104344327
0,003361792588517
0,00268046956120947
0,00190235171309971
0,00106769533640164
0,000222457279004781
-0,000583205818377393
-0,00129690827100318
-0,00186642768946719
-0,00224242443501247
-0,00238134959255849
-0,00224836538297559
-0,00182007544031758
-0,00108685058453026
-5,45411478018183E-05
0,00125460926421805
0,00280199193684998
0,00453368894526345
0,00638257288619083
0,00827138970640472
0,0101166858133498
0,0118333677717087
0,0133396214998989
0,0145618737259227
0,0154394561177967
0,015928634996407
0,0160056979854407
0,0156688424221668
0,0149386858066934
0,0138573110999474
0,0124858627608531
0,0109008154388669
0,00918913807393811
0,00744266375575382
0,00575204283915093
0,00420069758760114
0,00285920710007202
0,00178052972045899
0,000996417357926128
0,000515295418357197
0,000321778927103777
0,000377877405308508
0,000625816960710904
0,000992287396506194
0,00139381437393837
0,00174287037160545
0,00195428047531476
0,00195145475972701
0,00167199056723679
0,00107223479554605
0,000130475042846443
-0,00115146682801555
-0,0027483426293433
-0,00461326051879203
-0,00668098723244363
-0,00887249893390849
-0,0111004159747941
-0,0132748927817798
-0,0153095049103162
-0,0171266834432703
-0,0186622916001861
-0,0198690158901844
-0,0207183478026279
-0,021201053058097
-0,0213261535424613
-0,0211185712149623
-0,0206156929461647
-0,0198632009364964
-0,0189105678082818
-0,0178066340296728
-0,0165956665574808
-0,0153142433766476
-0,0139892239106326
-0,012636957899181
-0,0112637650631268
-0,00986759570661864
-0,00844066956820336
-0,00697279708958902
-0,00545502247182026
-0,00388319745696616
-0,00226110160123997
-0,000602768343702608
0,0010662475763543
0,00270882391193122
0,00427749045933536
0,00571683590973484
0,00696690718783418
0,00796730787746942
0,00866163103603167
0,00900182465992567
0,00895208907900497
0,00849194475701291
0,00761818288731109
0,00634551292440866
0,0047058411676662
0,002746241304112
0,000525799200978922
-0,00188838151016879
-0,00442564961661304
-0,00701634687236608
-0,00959601073046628
-0,0121088679453874
-0,0145103207749382
-0,0167682297207416
-0,0188629181306351
-0,0207859526107938
-0,0225378762775877
-0,0241251770896816
-0,0255568501668322
-0,0268409531989345
-0,0279815534181252
-0,0289764228343555
-0,0298157593339666
-0,0304821024046678
-0,0309514843868371
-0,0311957239911886
-0,0311856419455225
-0,0308948720435203
-0,0303038657741852
-0,0294036533064297
-0,0281989322370877
-0,0267101082314743
-0,0249740040739237
-0,0230430773375613
-0,0209831301662
-0,0188696437567961
-0,0167830103960322
-0,0148030533351996
-0,013003307398365
-0,0114455722230692
-0,0101752407773405
-0,00921784826554761
-0,00857718537752113
-0,00823518402572516
-0,00815362566550888
-0,00827755671515159
-0,00854013811388957
-0,00886852164596292
-0,00919024726912421
-0,00943960290605415
-0,00956338632386723
-0,00952555836574859
-0,00931037356401008
-0,00892370922129568
-0,00839247495474854
-0,00776215652597487
-0,00709271460725245
-0,00645320551852258
-0,00591560342126524
-0,00554837178301849
-0,00541035004589725
-0,0055454881132065
-0,00597888002776973
-0,00671442707421615
-0,00773431116806132
-0,00900029591950838
-0,0104567105250801
-0,0120348255276406
-0,0136582127281465
-0,0152486043052239
-0,0167317347949874
-0,0180426658773148
-0,0191301552102541
-0,0199597300416183
-0,020515253683145
-0,0207989155353245
-0,0208297194253792
-0,0206406770409443
-0,0202750212362903
-0,0197818285959556
-0,0192114760130168
-0,0186113502308831
-0,0180221843882972
-0,0174753173926243
-0,0169910691752158
-0,0165783084339689
-0,0162351711209711
-0,0159507792199942
-0,0157077204931305
-0,0154849886562516
-0,0152610547684527
-0,0150167458888627
-0,0147376443075793
-0,0144157848459332
-0,0140505112289399
-0,0136484462079542
-0,0132226240322815
-0,0127909185301959
-0,0123739672294381
-0,011992835438093
-0,0116666805471685
-0,0114106653251426
-0,0112343319253029
-0,0111405904915874
-0,011125404368563
-0,0111781760107992
-0,0112827620496811
-0,0114189805277033
-0,011564424591411
-0,0116963696429397
-0,0117935574186635
-0,0118376605049036
-0,0118142718387634
-0,0117133210287506
-0,0115288866324954
-0,0112584435961405
-0,010901650568704
-0,0104588359479823
-0,00992937872391531
-0,00931019669534253
-0,00859454869674284
-0,00777132967959736
-0,00682499044699548
-0,0057361521154361
-0,00448291484566201
-0,00304278776588786
-0,00139509922183587
0,000476310086105847
0,00258034843348722
0,00491614565865458
0,00747099064986751
0,0102189616139597
0,0131204305135916
0,0161225594812339
0,0191608314557593
0,0221615758136386
0,0250453689334843
0,0277311159397068
0,0301405592347837
0,0322029167492906
0,0338593316282675
0,0350668171735554
0,0358014064311318
0,0360602631678069
0,0358625769247658
0,0352491447448682
0,0342806304215025
0,0330345824803669
0,0316013781491651
0,0300793361447221
0,0285693007532093
0,0271690390244176
0,0259678089524895
0,0250414479073208
0,0244482976272742
0,0242262269166874
0,0243909394226852
0,0249356666116589
0,0258322514006867
0,0270335325617419
0,0284768509024723
0,0300884218636429
0,031788261279047
0,0334953160059016
0,0351324417373644
0,0366308873772128
0,037933987739661
0,0389998308602794
0,0398027479549025
0,0403335666674425
0,0405986643941505
0,0406179504926239
0,0404219866179966
0,0400485167312763
0,039538717357757
0,0389334912035918
0,0382701122660308
0,0375794893885936
0,0368842514416327
0,0361977765083487
0,0355241967787808
0,034859318373066
0,0341923093509615
0,0335079375697502
0,0327890894606399
0,0320192760476463
0,0311848361857669
0,0302765790524115
0,0292906657932807
0,0282286088905443
0,0270963602512661
0,0259025567768229
0,0246560861203118
0,0233632164750082
0,0220245944796738
0,0206324483225762
0,0191683347766217
0,0176017378971264
0,0158897650171327
0,0139780969393252
0,011803240816608
0,00929601511266899
0,00638607646081343
0,00300718880879105
-0,000897153941229662
-0,00536820084847138
-0,0104269862990747
-0,0160704015039989
-0,022268701072818
-0,0289647602636798
-0,0360752776006828
-0,043493974925729
-0,0510966934901908
-0,0587481325427531
-0,0663098383578642
-0,0736489383910418
-0,0806470370257633
-0,0872086534266777
-0,0932685922858171
-0,0987976950553864
-0,103806519194435
-0,108346629066383
-0,112509344480138
-0,116421969258925
-0,120241699196978
-0,124147572637215
-0,128330964933099
-0,132985229426336
-0,138295144374119
-0,144426833050799
-0,151518782570309
-0,159674499268895
-0,168957211958059
-0,179386879290388
-0,190939586448845
-0,20354924319761
-0,21711133389412
-0,231488333205723
-0,24651629965261
-0,262012100354828
-0,277780708451626
-0,29362204952324
-0,309336950950166
-0,324731860836447
-0,339622140264643
-0,353833881640971
-0,367204353146322
-0,379581301604231
-0,390821451547185
-0,400788607616222
-0,409351794624637
-0,416383852516622
-0,42176084394895
-0,425362536102798
-0,427074094773449
-0,426788989503075
-0,42441296677208
-0,419868817565936
-0,413101558647807
-0,404083574083497
-0,392819232469626
-0,379348509564413
-0,363749205126428
-0,346137442051012
-0,32666626693485
-0,305522322487413
-0,282920720236133
-0,259098392414915
-0,234306331001297
-0,208801217551387
-0,182837000729811
-0,156656983964211
-0,130486942573721
-0,104529701566545
-0,0789614798458591
-0,0539301550552422
-0,0295554394836433
-0,00593079634796065
0,0168732178452574
0,0388046120277465
0,0598251192678101
0,0799053783103363
0,0990206350398537
0,117147388002701
0,134261289210035
0,150336469561534
0,165346301207451
0,179265452353445
0,192072948770635
0,203755844542159
0,214313033450672
0,223758709128865
0,232125009185102
0,239463453666007
0,245844904346906
0,251357917287783
0,256105522735882
0,260200627953832
0,263760383988397
0,266899972247174
0,26972633933282
0,272332431248778
0,274792447905335
0,277158557990399
0,279459389827871
0,281700457102453
0,283866503825785
0,285925576940928
0,287834474085486
0,289545083495999
0,291011045312654
0,292194127152136
0,293069725475795
0,293630976673563
0,293891081499286
0,293883602853513
0,293660675814917
0,293289254136527
0,292845692534544
0,292409113346305
0,292054116329205
0,29184345197249
0,291821286561324
0,292007641156915
0,292394491186259
0,292943877388691
0,293588214723081
0,294232808112808
0,294760408024221
0,295037479762109
0,294921731125663
0,29427035377287
0,292948390619427
0,290836646933996
0,287838614292829
0,283885968097143
0,278942321644021
0,273005061136707
0,266105233842164
0,258305603207782
0,249697108662655
0,240394064813038
0,230528498382986
0,220244048500108
0,209689847120876
0,199014755043732
0,188362261270608
0,177866267545521
0,167647884922299
0,157813274451111
0,148452478127505
0,139639116092596
0,131430776718496
0,123869900160528
0,116984953280457
0,1107917122624
0,10529450456745
0,100487308511319
0,0963546604216021
0,0928723697162815
0,0900080856416556
0,0877217913076499
0,0859663181221518
0,084687975596424
0,0838273784436093
0,0833205272185201
0,0831001640873195
0,083097386120014
0,0832434596557906
0,0834717453849902
0,0837196188658472
0,0839302581023414
0,0840541701728731
0,0840503427787343
0,0838869326912138
0,0835414387868403
0,083000349184886
0,0822582957652788
0,0813167908177779
0,0801826557553141
0,0788662773870937
0,0773798408248824
0,0757356885283992
0,0739449422960113
0,072016500476047
0,0699564885874956
0,0677682010351358
0,0654525282480272
0,063008821135401
0,0604361067681495
0,0577345387461911
0,0549069450904858
0,0519603271741039
0,0489071656157894
0,0457664027195532
0,0425639946201665
0,0393329577437522
0,0361128710030019
0,0329488345251301
0,02988992486388
0,0269872229182084
0,0242915218745323
0,021850846576348
0,0197079314930029
0,0178978111747158
0,0164456745310498
0,0153651227788257
0,0146569511620186
0,0143085476832074
0,0142939694290313
0,0145747202498412
0,0151012143121343
0,0158148702743976
0,0166507425091348
0,017540560934559
0,0184160216023422
0,0192121481368877
0,0198705311777489
0,0203422505322892
0,0205902938621861
0,0205913067968477
0,0203365421834192
0,0198319196943466
0,0190971593554969
0,018164011018134
0,0170736629261208
0,0158734722804708
0,0146132146988248
0,0133410933054148
0,0120997777841686
0,0109227557440521
0,00983127087007077
0,00883209368799519
0,00791632202118652
0,00705934176584509
0,00622199845319173
0,00535294166522819
0,00439201422480269
0,00327447331664781
0,00193575840673685
0,000316467546838007
-0,00163282537266308
-0,00394728105913759
-0,0066443736638425
-0,0097216227365421
-0,0131556824308075
-0,0169028927053741
-0,0209012867143722
-0,0250739356307272
-0,0293334062434594
-0,0335870167607117
-0,0377425103216838
-0,041713729711225
-0,0454258743137229
-0,0488199520371914
-0,0518561025580904
-0,0545155585561981
-0,0568011210986144
-0,0587361445768184
-0,0603621453091554
-0,0617352557327358
-0,0629218336417506
-0,0639935955942379
-0,0650226703519524
-0,0660769600466352
-0,067216154854147
-0,0684886756676192
-0,0699297256270839
-0,0715605245128118
-0,0733886901948798
-0,0754096290735428
-0,0776087123407293
-0,0799639548605625
-0,0824488838202765
-0,0850352873416346
-0,0876955679523262
-0,0904044880249924
-0,0931401770420187
-0,0958843648507867
-0,0986219007534566
-0,101339705073588
-0,104025368385488
-0,106665656435033
-0,10924519111939
-0,111745558160536
-0,114145042047843
-0,116419113529407
-0,118541702151585
-0,120487185920412
-0,122232932905703
-0,123762146287251
-0,125066704518593
-0,126149659356563
-0,127027060839712
-0,127728820779899
-0,128298402153566
-0,128791224595614
-0,129271796807007
-0,129809713668014
-0,130474776873982
-0,13133160074253
-0,132434138681807
-0,133820602291012
-0,135509239235823
-0,137495386757673
-0,139750128034421
-0,142220755484682
-0,144833098791593
-0,147495618590891
-0,150105013369617
-0,152552951087749
-0,154733430980422
-0,156550215009425
-0,157923749120489
-0,15879702429905
-0,159139904469961
-0,158951566368754
-0,158260845698054
-0,157124451434248
-0,155623181621264
-0,153856434560927
-0,151935445146331
-0,149975775527532
-0,148089643977981
-0,146378681338459
-0,144927660729194
-0,143799657616821
-0,14303297200334
-0,14263999375668
-0,14260802932278
-0,142901947436046
-0,143468356780678
-0,14424091195192
-0,145146264925866
-0,146110143492877
-0,147063047706113
-0,147945108270274
-0,148709741151694
-0,149325851548727
-0,149778476515289
-0,150067896546032
-0,150207379811553
-0,150219837024883
-0,150133750701725
-0,149978793213536
-0,149781560230114
-0,14956182005552
-0,149329618534744
-0,149083490142311
-0,148809917285546
-0,148484061981952
-0,148071677549598
-0,147532002975495
-0,146821358044535
-0,145897099920874
-0,14472157581358
-0,143265713012753
-0,14151192537517
-0,139456080117004
-0,137108354180324
-0,134492907608388
-0,131646403542549
-0,128615501909448
-0,125453538515007
-0,12221666636788
-0,118959776750944
-0,115732531161888
-0,112575821363032
-0,109518935332346
-0,106577645805551
-0,103753360852689
-0,101033389229007
-0,0983922842413753
-0,0957941457168212
-0,0931956868774559
-0,0905498169404491
-0,0878094549892242
-0,0849312783512837
-0,0818791197127746
-0,0786267600860726
-0,0751599164624502
-0,071477289123274
-0,0675906087509795
-0,063523701737096
-0,0593106674062575
-0,0549933275355613
-0,050618161653891
-0,0462329772872673
-0,0418835801354611
-0,037610704132884
-0,0334474361450122
-0,029417326763812
-0,0255333208400721
-0,0217975735699979
-0,0182021455258182
-0,014730498631571
-0,0113596504351075
-0,00806279121319159
-0,00481213176010438
-0,00158173216607168
0,0016499349468051
0,00489790951234882
0,00816933758756747
0,0114628553964595
0,0147688167887419
0,01807034272123
0,0213450979752415
0,0245676340866814
0,027712084201825
0,0307549600820918
0,0336777872354515
0,0364693228188544
0,0391271323779216
0,0416583534321816
0,0440795424451372
0,0464155812356905
0,0486977028127176
0,0509607777113037
0,053240073082788
0,0555677515595858
0,0579694101155443
0,0604609673043623
0,0630461890371746
0,0657150993465832
0,0684434564798424
0,0711933913116957
0,0739152111258547
0,0765502750723657
0,079034756144526
0,0813040261820594
0,0832973419762817
0,084962477299035
0,0862599407152086
0,0871664432389616
0,0876773315941147
0,0878077781136974
0,087592611235154
0,0870847736526046
0,086352500188201
0,0854754058307772
0,0845397582213001
0,0836332713853343
0,0828397937454518
0,0822342705755366
0,0818783386661775
0,0818168610517408
0,0820756364011428
0,0826604271857071
0,0835573503465351
0,0847345720364823
0,0861451521411794
0,0877308022146623
0,0894262583440059
0,0911639328057278
0,0928784975616967
0,0945110688738896
0,0960127035803319
0,0973469799203923
0,0984915136572551
0,0994383469924756
0,100193236234316
0,100773947297373
0,101207739492092
0,101528272454167
0,10177220481614
0,101975764466789
0,102171559004242
0,102385863141228
0,102636570785513
0,102931938018755
0,103270174712999
0,103639872889356
0,104021194764795
0,104387687760015
0,104708551523146
0,104951155950639
0,105083600454522
0,105077113097471
0,10490811202515
0,1045597880631
0,104023112749654
0,103297226232879
0,102389210079099
0,101313297038108
0,100089609676632
0,0987425498492353
0,0972989795034296
0,0957863397021423
0,0942308493712725
0,0926559094492749
0,0910808139355418
0,0895198393209667
0,087981750894279
0,0864697312633829
0,0849817056683998
0,0835110124629114
0,0820473470628937
0,0805778946443954
0,0790885612054692
0,0775652139631994
0,0759948495921743
0,0743666213446663
0,072672672104305
0,070908738438941
0,0690745091536167
0,0671737394082518
0,0652141369823724
0,0632070499397429
0,0611669942371451
0,0591110654642345
0,0570582809666471
0,0550288972976285
0,0530437437120894
0,0511236057757957
0,0492886847553681
0,0475581489121827
0,0459497828629109
0,0444797314396931
0,0431623256412755
0,0420099709544177
0,0410330730623186
0,0402399732293012
0,0396368658036436
0,0392276734692368
0,039013862107108
0,0389941861076564
0,0391643662374184
0,0395167148643853
0,0400397365435676
0,0407177443989609
0,0415305431338488
0,042453236487691
0,0434562194025246
0,0445054120173964
0,0455627833653568
0,0465871971787271
0,0475355909734654
0,0483644737141905
0,0490316984412408
0,0494984365010254
0,0497312519505236
0,0497041510176371
0,0494004648574809
0,0488144165612181
0,0479522272853784
0,0468326324334617
0,0454867071214006
0,0439569396960753
0,0422955406979972
0,0405620293844138
0,0388201967631437
0,0371345986309914
0,0355667796955793
0,0341714660314995
0,0329929839645669
0,0320621661380494
0,0313939883280504
0,0309861434875946
0,0308187040870044
0,0308549532229425
0,0310433838859046
0,0313207799649981
0,0316162085874446
0,031855677958326
0,0319671544647136
0,0318855929095414
0,0315576185389243
0,0309455113420335
0,0300301821763828
0,0288128946787476
0,0273155725646875
0,0255796328795352
0,0236633945845607
0,0216382202841543
0,0195836483247345
0,0175818548337631
0,0157118435451402
0,0140437901939254
0,0126339648737752
0,0115206194962887
0,0107211605094305
0,0102308339793017
0,0100230378634266
0,010051253355333
0,0102524631185645
0,0105518089126515
0,0108681438472179
0,0111200632135253
0,0112319586514449
0,0111396366619743
0,0107950749369329
0,0101699562544885
0,00925771476322955
0,00807394583635588
0,00665515899439529
0,00505598336953692
0,00334505615787093
0,00159992667628644
-9,86164778244714E-05
-0,00167234617960379
-0,00305107178938097
-0,00417736725882997
-0,00501019801329625
-0,00552718782100731
-0,00572538291073265
-0,00562049732528382
-0,00524475009340898
-0,00464352045733739
-0,00387114231031899
-0,00298622508811273
-0,00204692013206489
-0,00110654640335642
-0,000209948112534055
0,000609116852668218
0,00132935814515793
0,00194202028356621
0,00244967488427941
0,00286389422407933
0,00320206502280587
0,00348367939989128
0,00372648674828411
0,00394290151024125
0,00413703669227843
0,00430267362625606
0,00442239044087926
0,00446796285025354
0,0044020311110184
0,00418090713398351
0,0037582866164012
0,00308954257939282
0,00213621687023254
0,000870300494351128
-0,000722095531625345
-0,00263803060262273
-0,00485625987169243
-0,00733716520857511
-0,0100241437130169
-0,0128463815941227
-0,0157228225311026
-0,0185670366692819
-0,0212926180999646
-0,0238186916463604
-0,0260750980076748
-0,028006850557776
-0,0295775151808683
-0,0307712511852381
-0,0315933591025961
-0,0320693007916299
-0,0322422786030407
-0,0321695733489675
-0,0319179362371331
-0,0315584002196956
-0,0311609160798341
-0,0307892253573454
-0,0304963561113823
-0,0303210713535874
-0,0302855190834426
-0,0303942343556792
-0,0306345360576501
-0,0309782529748159
-0,0313846138034734
-0,0318040516870887
-0,0321826115944108
-0,0324666125538741
-0,0326072081725483
-0,03256450757177
-0,0323109622767037
-0,0318337883021351
-0,0311362709187831
-0,0302378857724133
-0,0291732573212536
-0,0279900574232248
-0,0267460175833676
-0,0255052833579187
-0,0243343755855339
-0,0232980390474755
-0,0224552549459705
-0,0218556708029085
-0,0215366628562206
-0,0215211954289401
-0,0218165833766182
-0,022414201952905
-0,0232901276423363
-0,0244066374577521
-0,0257144461022133
-0,0271555225677031
-0,0286663016980623
-0,0301810925300794
-0,0316354836694605
-0,0329695556866459
-0,0341307300834109
-0,0350761120430628
-0,0357742179044674
-0,0362060160235514
-0,0363652493523539
-0,0362580477041571
-0,0359018755308799
-0,0353238954561041
-0,0345588574211363
-0,0336466469059056
-0,0326296422354938
-0,0315500398168715
-0,030447306646041
-0,0293559114780387
-0,0283034696964894
-0,0273094127276403
-0,0263842617419657
-0,0255295487211459
-0,0247383876111061
-0,0239966563762329
-0,0232847098758848
-0,0225795062108818
-0,0218569982456686
-0,0210946198521113
-0,0202736850807323
-0,0193815194647239
-0,0184131565490911
-0,0173724594007282
-0,0162725649196955
-0,0151355961311992
-0,013991641156074
-0,0128770534454554
-0,0118321819944499
-0,0108986881482467
-0,0101166433686562
-0,00952162626606059
-0,00914204490756645
-0,00899690041669274
-0,00909418025725309
-0,00943002584133355
-0,00998876206909544
-0,0107438103369452
-0,0116594364046076
-0,0126932160628134
-0,013799040414134
-0,0149304341778281
-0,0160439291781865
-0,0171022242347514
-0,0180768736492616
-0,018950279043258
-0,0197168114500447
-0,0203829584018158
-0,0209664691044422
-0,021494553318325
-0,0220012694704315
-0,0225243080648779
-0,0231014314521056
-0,0237668655504924
-0,0245479497143981
-0,0254623362882562
-0,0265159919814631
-0,0277021918698488
-0,0290016180724209
-0,0303835851355394
-0,0318083200515565
-0,0332301342316199
-0,0346012452618515
-0,0358759444892549
-0,0370147680288846
-0,0379883171517684
-0,0387803909418495
-0,0393901388204758
-0,0398330102180108
-0,0401403683958921
-0,0403577385510675
-0,0405417691608642
-0,0407560915399827
-0,0410663575349801
-0,041534811318819
-0,0422148020605683
-0,0431456650574363
-0,0443483873256643
-0,0458224295283884
-0,0475440019046726
-0,0494659923342008
-0,0515196266037801
-0,053617812865688
-0,0556599935300266
-0,057538208321286
-0,0591439712291601
-0,0603754899395309
-0,0611447154674223
-0,061383706284518
