0,0453362024863473
0,0541095740462378
0,0625112644801874
0,0702851948505305
0,0772133429140698
0,0831279195440651
0,0879198350723155
0,0915429203992414
0,0940137045005605
0,0954068955487158
0,0958470387499381
0,095497103653237
0,0945449652802061
0,0931888714746665
0,0916230252697842
0,0900243559792688
0,0885414138348195
0,087286114987338
0,0863288065401815
0,0856968382500682
0,0853765432172013
0,0853182678133117
0,0854438717475346
0,0856559585271933
0,0858480046352106
0,0859145362128793
0,0857605522689837
0,0853095048790067
0,0845093064844131
0,0833360257729925
0,0817951387379875
0,0799204026076259
0,0777706009577159
0,0754245554309905
0,0729749035224112
0,0705211979731166
0,0681628910150434
0,0659927295821741
0,0640910129442028
0,0625210614765973
0,0613261255938027
0,0605278385075353
0,0601261959360121
0,0601009391305742
0,0604141313505744
0,0610136562614518
0,0618373313458883
0,0628173194049253
0,0638845338473746
0,0649727646306895
0,0660222963341024
0,0669828430103435
0,0678156811412571
0,068494918341124
0,0690078882143615
0,0693547088411445
0,0695470826733558
0,0696064486548657
0,0695616233196666
0,0694460866637158
0,0692950811091169
0,0691426978602519
0,0690191243243182
0,0689482184817238
0,068945560764475
0,0690171105748783
0,069158563036902
0,0693554624178318
0,069584083010103
0,0698130383667242
0,0700055283566348
0,0701220843570049
0,0701236298267549
0,0699746407768965
0,0696461717817376
0,0691185112077773
0,0683832457997481
0,0674445498997535
0,0663195667997682
0,065037815737615
0,063639633208784
0,062173735425876
0,0606940634868411
0,0592561372070367
0,0579131916482095
0,056712396993882
0,0556914645060513
0,0548759175598219
0,0542772585060618
0,0538921927487339
0,053702986521785
0,0536789415410841
0,0537788759956387
0,05395441571988
0,0541538294425899
0,0543260943898725
0,0544248576592915
0,0544119669858706
0,0542602811705841
0,0539555326225313
0,0534970965978177
0,0528976165775207
0,0521815342344284
0,0513826666904838
0,0505410547939464
0,0496993665602997
0,0488991745105188
0,0481774312987272
0,04756344459088
0,0470766019481223
0,0467250245267511
0,0465052413942543
0,0464028825752211
0,0463942971414216
0,0464489213237187
0,0465321579831609
0,0466084885126815
0,0466445246651467
0,0466117215928401
0,0464885128463687
0,0462616889046772
0,0459269169290838
0,0454883832930424
0,0449576241377235
0,0443516846561543
0,0436908082702474
0,0429958968079481
0,0422859990246038
0,0415760761971629
0,0408752615544942
0,0401857784587543
0,0395026159131543
0,0388139856961804
0,0381025104680696
0,0373470235395145
0,036524804980992
0,0356140403511617
0,0345962705591357
0,0334586055112564
0,032195499063074
0,0308099257048948
0,0293138556157064
0,0277279888526437
0,0260807751073973
0,0244068068112182
0,0227447246847136
0,0211348120794853
0,0196164745786649
0,0182258033909941
0,0169934056877113
0,015942654426367
0,0150884680629267
0,0144366812441707
0,0139840162246195
0,0137186160044562
0,0136210586294525
0,0136657408342789
0,0138225006924215
0,0140583436204011
0,0143391436595631
0,0146312102911366
0,0149026374826263
0,0151243825936135
0,0152710545881984
0,0153214200806252
0,0152586592101038
0,0150704190433169
0,0147487190852871
0,014289761701666
0,0136936908571673
0,0129643277703649
0,0121088943747202
0,0111377180605242
0,0100638966902058
0,00890289402072688
0,00767203392108806
0,00638986803897672
0,00507540534027846
0,00374721195167624
0,00242241347568203
0,00111565649169135
-0,000161892114383297
-0,00140341340253076
-0,00260707050005774
-0,00377631073715951
-0,00491975369827915
-0,00605061053698945
-0,0071856172815714
-0,00834350937351884
-0,00954311228925668
-0,0108011692732555
-0,0121300669569588
-0,0135356484694568
-0,0150153175100418
-0,0165566331623199
-0,0181365726842322
-0,0197215987431614
-0,0212686108447132
-0,022726792092109
-0,0240402873098899
-0,0251515732799503
-0,0260053131686938
-0,0265524316521102
-0,0267541105158795
-0,0265853908449026
-0,0260380798809935
-0,0251226983421477
-0,0238692656140037
-0,0223268014457803
-0,0205615176376412
-0,0186537741056288
-0,0166939725116902
-0,0147776488381641
-0,0130000962983264
-0,0114508953182415
-0,0102087436934619
-0,00933696522741706
-0,00888002986176813
-0,00886134556534923
-0,00928248765222785
-0,0101239221553561
-0,0113471652749298
-0,0128982100292331
-0,014711953298984
-0,0167172796427503
-0,018842408945542
-0,0210200973948746
-0,023192296907509
-0,0253139256973592
-0,0273554781434236
-0,0293042992200987
-0,0311644591801306
-0,0329552787484053
-0,0347086640754427
-0,0364655050772229
-0,0382714626120401
-0,0401725135087065
-0,0422106342069816
-0,0444199831820673
-0,0468238914616476
-0,0494328942377187
-0,0522439415934133
-0,0552408213332074
-0,0583957209083949
-0,0616717578145745
-0,0650262269410768
-0,0684142560795365
-0,0717925317523146
-0,0751227589553064
-0,0783745496676784
-0,0815274928994945
-0,0845722380667166
-0,087510516278127
-0,0903541221470056
-0,0931229731666102
-0,0958424460661939
-0,0985402526139193
-0,101243155596523
-0,103973836077107
-0,10674820485252
-0,10957340629817
-0,112446695897974
-0,115355289991468
-0,118277195318571
-0,121182935234411
-0,124038007183469
-0,126805839611056
-0,129450971880723
-0,131942161806767
-0,134255133578775
-0,13637471327893
-0,138296156439884
-0,140025546827174
-0,141579230948054
-0,142982340856648
-0,144266540606437
-0,145467201815014
-0,146620264908603
-0,147759070251622
-0,148911445186327
-0,150097308998821
-0,151327010262202
-0,152600544362184
-0,15390771928829
-0,155229252222486
-0,156538695750268
-0,157805018096964
-0,158995603261523
-0,160079399408659
-0,161029930639703
-0,161827899372919
-0,162463142892013
-0,162935764859098
-0,163256335714056
-0,163445138366849
-0,163530520270111
-0,16354649240697
-0,163529783022824
-0,16351660325203
-0,163539408890039
-0,163623945015271
-0,163786837841512
-0,164033952913543
-0,164359674370854
-0,164747182028676
-0,165169718031762
-0,165592749997939
-0,165976860181135
-0,166281126722461
-0,166466718967955
-0,166500407950657
-0,16635769726673
-0,166025308499791
-0,16550280684402
-0,16480322234989
-0,163952604594497
-0,162988536776712
-0,161957721829245
-0,16091283092838
-0,159908867210485
-0,158999339121537
-0,158232555053793
-0,157648342062285
-0,157275456944394
-0,157129900513092
-0,157214270076023
-0,15751819710295
-0,158019824219796
-0,158688185814594
-0,159486277379958
-0,160374537269372
-0,16131442636358
-0,162271779920372
-0,163219623195575
-0,164140187285085
-0,165025930773406
-0,165879460731254
-0,166712346115487
-0,167542919225322
-0,168393257685156
-0,169285621647299
-0,170238680890637
-0,171263898207483
-0,172362435176286
-0,173522913027594
-0,174720296697927
-0,175916078844776
-0,177059829741572
-0,178092057670135
-0,178948202996655
-0,179563478309765
-0,1798781770655
-0,179843012830504
-0,179424026992935
-0,178606618283222
-0,177398302826429
-0,175829905449886
-0,173955005003018
-0,171847598942872
-0,169598103725761
-0,167307954753931
-0,165083199636837
-0,163027579388117
-0,161235653934973
-0,159786544122767
-0,158738829171298
-0,158127057448848
-0,157960204751255
-0,158222257411403
-0,158874919962005
-0,159862263603595
-0,161116958148447
-0,162567581999256
-0,164146395721503
-0,165796905800636
-0,167480542843869
-0,16918183480457
-0,170911567536884
-0,172707584037004
-0,174633067320844
-0,176772364124855
-0,179224619120356
-0,18209568337649
-0,185488918637631
-0,189495625623904
-0,194185869018153
-0,199600448609385
-0,20574467534852
-0,212584459309093
-0,22004501584628
-0,228012263521683
-0,236336742969817
-0,244839652071706
-0,253320391343861
-0,261564864222739
-0,269353695554437
-0,276469528198114
-0,282702635541291
-0,28785424305406
-0,291737173520615
-0,29417370077913
-0,294990792757649
-0,294013220264856
-0,291055276011255
-0,285912062701481
-0,278351447186284
-0,268107822887104
-0,254878765528883
-0,238325506890995
-0,218077895803726
-0,193744181787426
-0,164925568720047
-0,131235073774677
-0,0923198239456516
-0,0478855629907567
0,00227814251900836
0,0582736909299921
0,120073979216327
0,18750536132032
0,260236503301568
0,337774278694874
0,419467417401618
0,504518119783227
0,592001310944966
0,680890678860093
0,770090155178222
0,858469097851002
0,944899152979949
1,02829063381448
1,10762627127622
1,18199036432842
1,25059167918585
1,31277889121164
1,36804789963913
1,41604093253529
1,45653795266284
1,48944142796286
1,51475599986608
1,53256493128511
1,5430054159384
1,54624486533124
1,54246015599375
1,5318215277544
1,51448239695598
1,49057582073619
1,46021776217588
1,42351670875382
1,38058863650847
1,33157583532956
1,27666775578251
1,21612183405132
1,15028221572372
1,07959443449392
1,00461439748714
0,926010460965871
0,844557913536676
0,761125775456466
0,676656424344514
0,592139121140192
0,508578990463122
0,42696336874431
0,348227643932473
0,273222757006475
0,202686416244712
0,137219802029141
0,0772711370993409
0,0231269988288249
-0,0250883023488261
-0,0674055160078164
-0,103996180624422
-0,13515250391193
-0,16126295311775
-0,182785325393824
-0,20021913718659
-0,214079098481419
-0,22487123520093
-0,233072913787626
-0,239117636619546
-0,243385050955956
-0,246196184789085
-0,247813525850331
-0,248445226015145
-0,248252466198539
-0,247358871433744
-0,24586082725589
-0,243837612179989
-0,241360413579787
-0,238499515126413
-0,235329207823717
-0,231930255973704
-0,228390016930901
-0,224800545027293
-0,221255186308902
-0,217844279005685
-0,214650609675944
-0,211745238803194
-0,209184211267833
-0,207006521124317
-0,205233524852111
-0,203869812981129
-0,202905376726511
-0,202318761732309
-0,202080799154703
-0,202158453904639
-0,202518333972025
-0,203129460693678
-0,203964999567174
-0,205002782538283
-0,206224600470747
-0,207614392408693
-0,209155590373945
-0,210827980994693
-0,212604507711079
-0,21444845361674
-0,216311413772766
-0,218132390692587
-0,219838235544599
-0,221345521867172
-0,222563791989128
-0,223399973541234
-0,223763638524316
-0,223572682617629
-0,222758946959285
-0,221273293772975
-0,219089682069805
-0,216207866753888
-0,21265445666019
-0,208482203750901
-0,203767544315557
-0,198606559886807
-0,193109657470474
-0,187395373780352
-0,181583777416108
-0,1757899705134
-0,17011817549544
-0,164656835259017
-0,159475062166458
-0,154620651554226
-0,150119740118338
-0,145978050888223
-0,142183536777332
-0,138710125235751
-0,135522186395352
-0,132579302708694
-0,129840912243098
-0,127270430008309
-0,124838517829986
-0,122525266367108
-0,120321163627947
-0,118226842114234
-0,116251710559397
-0,114411675746188
-0,112726236424325
-0,11121527846534
-0,109895914690738
-0,108779693895962
-0,107870454365433
-0,107163023066476
-0,10664287063402
-0,106286733285003
-0,10606411569721
-0,105939502941836
-0,105875042795211
-0,105833418213623
-0,105780616877526
-0,105688321208249
-0,105535685872685
-0,105310335844628
-0,105008499651954
-0,104634281401806
-0,104198162576517
-0,103714902060569
-0,10320106280802
-0,102672430399638
-0,102141599058616
-0,101615983715593
-0,10109647428678
-0,100576884667132
-0,100044270348735
-0,0994801025499201
-0,0988622015946487
-0,098167255978334
-0,0973736933526734
-0,0964646309989668
-0,0954306198884025
-0,0942719091899084
-0,0929999958892175
-0,09163828344128
-0,0902217486813109
-0,0887956007651057
-0,087413002139573
-0,0861320019718948
-0,0850119001243369
-0,0841093090829099
-0,0834742082267538
-0,0831462876607412
-0,0831518576356756
-0,083501556709457
-0,0841890311719162
-0,0851906853310094
-0,0864665231700781
-0,0879620231515567
-0,0896109157199606
-0,0913386727256803
-0,0930664737207269
-0,0947153885039895
-0,096210509487416
-0,097484780755503
-0,098482301116568
-0,099160922631153
-0,0994940200429563
-0,0994713655473765
-0,0990991028803706
-0,0983988704749847
-0,0974061717562345
-0,0961681287950998
-0,0947407817433683
-0,0931861100680698
-0,0915689528561844
-0,0899539956251698
-0,088402971928595
-0,0869722020117062
-0,0857105602539116
-0,0846579308149085
-0,0838441789575991
-0,083288636010488
-0,0830000703430668
-0,0829770960339926
-0,0832089556618299
-0,0836766038278131
-0,084354013366912
-0,0852096260154908
-0,086207872860849
-0,0873106962616471
-0,088479013311074
-0,0896740704263471
-0,0908586487589554
-0,0919980902072852
-0,0930611235797436
-0,0940204796544517
-0,0948532923778113
-0,0955412912178431
-0,0960707966625623
-0,0964325370900515
-0,0966213106406345
-0,0966355202556739
-0,0964766135981174
-0,0961484620225662
-0,0956567139404736
-0,0950081577105365
-0,094210127469168
-0,0932699820468604
-0,0921946823184456
-0,0909904861329479
-0,0896627726263943
-0,0882159995085781
-0,0866537883144797
-0,0849791240879972
-0,0831946480866821
-0,0813030153745825
-0,0793072841584572
-0,0772113008523675
-0,0750200444339366
-0,0727398958889927
-0,0703788034012342
-0,0679463212607181
-0,0654535098010756
-0,0629126944991233
-0,0603370939247271
-0,0577403376523168
-0,0551359056645339
-0,0525365292989384
-0,0499535995986021
-0,0473966313962707
-0,0448728301644289
-0,0423868034690241
-0,0399404499387021
-0,037533046468289
-0,0351615397761185
-0,0328210324003184
-0,0305054370560121
-0,0282082582978571
-0,0259234479440808
-0,0236462719527374
-0,0213741222788578
-0,019107208350904
-0,0168490692953567
-0,0146068596486834
-0,0123913772693969
-0,0102168213024467
-0,00810028881200657
-0,00606103936325418
-0,00411957554993063
-0,0022966025193878
-0,000611939474721423
0,000916540123373609
0,00227386582978274
0,00344876064234792
0,00443421553333192
0,00522781878942129
0,00583183324261906
0,00625303727713256
0,00650236648620996
0,00659440972936599
0,00654682433355074
0,00637973885525717
0,00611520760968065
0,00577676925106887
0,00538914305862951
0,00497807310803664
0,00457030459165295
0,0041936511358032
0,00387709001430033
0,0036508065831686
0,00354610240712932
0,00359508505158257
0,00383007195775758
0,00428266571615402
0,00498249171582453
0,00595562878402926
0,00722280548214249
0,00879747487727495
0,0106839146138824
0,0128755226903398
0,0153534891459401
0,0180860174643238
0,0210282458673726
0,0241229785101598
0,0273022819845121
0,0304899374204974
0,0336046677763051
0,0365639896257644
0,0392884752096999
0,0417061597501367
0,0437567965066834
0,0453956516727782
0,046596545349946
0,0473538836505137
0,0476834885388302
0,0476221123007971
0,0472256165957831
0,0465658947410436
0,0457267121510764
0,044798725631431
0,0438740100691535
0,043040464828774
0,0423764876603723
0,0419462892121363
0,0417961769757326
0,0419520668886585
0,0424183893240696
0,0431784511932852
0,0441962059323968
0,045419277334297
0,0467829902672623
0,0482150889544321
0,0496407776091195
0,0509877024118817
0,0521905090682243
0,0531946547773516
0,0539592231400217
0,0544585789146569
0,0546827986736386
0,0546369145292611
0,054339102436522
0,0538180261241953
0,0531096059495369
0,0522535145286552
0,0512897058278489
0,0502552621615229
0,0491817972581592
0,0480935884527226
0,0470065339360695
0,0459279495140406
0,044857141426283
0,0437866246334956
0,0427038056253733
0,0415929193393375
0,040437003142545
0,0392197066554215
0,0379267717946935
0,0365470683250053
0,035073130405813
0,0335012023922998
0,0318308606903634
0,0300643265356389
0,0282056172614817
0,0262596976319959
0,0242317870033068
0,0221269533431581
0,0199500843878727
0,0177062741092304
0,0154016049477322
0,0130442493779222
0,0106457645839127
0,00822241692892134
0,00579635283975264
0,00339643221849661
0,00105856019415058
-0,00117460856368815
-0,00325466494470612
-0,00512914761863447
-0,00674389141484802
-0,0080458943069318
-0,00898651743001974
-0,00952478876204549
-0,0096305560151576
-0,00928723066046095
-0,00849388366664672
-0,00726649334544284
-0,00563820354620449
-0,0036585217203483
-0,00139146516960074
0,00108725636968124
0,00369385937202755
0,00634068136894857
0,00894068110878309
0,0114119477641464
0,0136819198923859
0,0156910343861884
0,0173955659798229
0,0187694756935014
0,0198051572622189
0,0205130484945933
0,0209201537150288
0,0210675979079288
0,0210073975693636
0,0207986830120932
0,0205036387298022
0,0201834406065189
0,019894460913651
0,019684985457133
0,0195926443358074
0,0196427022432154
0,0198472903901286
0,0202055947289906
0,0207049490604649
0,0213227212335045
0,0220288299969596
0,0227886921071546
0,023566376134383
0,0243277320052718
0,0250432735313308
0,0256906139189619
0,0262562894792092
0,0267368518004596
0,027139160307586
0,0274798619444525
0,0277840992111508
0,0280835386078266
0,0284138557063856
0,0288118480799794
0,0293123712573131
0,0299453045327721
0,0307327523290796
0,0316866730644105
0,0328071020577143
0,0340810993851745
0,0354825098960422
0,036972573280589
0,0385013699881752
0,0400100369668087
0,0414336385780358
0,0427045356138353
0,0437560616256508
0,0445262929794535
0,0449616887244928
0,0450203793644531
0,0446749001326451
0,043914193632382
0,0427447472820781
0,0411907806468239
0,0392934536090481
0,0371091251273086
0,034706750407896
0,0321645580505556
0,0295661946276768
0,026996559136429
0,0245375713734297
0,0222641248793054
0,0202404659684306
0,0185172158088172
0,0171292138400122
0,0160943103065014
0,0154131764366674
0,0150701365099394
0,015034960920901
0,0152654975564419
0,015710964540722
0,0163156842980489
0,0170230099487118
0,0177791824314663
0,018536861396664
0,0192580948549641
0,019916530431837
0,0204987226121473
0,0210044522051738
0,0214460423586083
0,0218467252984423
0,022238180726224
0,0226574259180442
0,0231432847689425
0,0237326948755339
0,0244571257413792
0,0253393760228968
0,0263909934061934
0,027610518563696
0,0289826972874971
0,0304787361474816
0,0320576015381093
0,0336682850546476
0,0352528853773575
0,0367502935894611
0,0381002200744746
0,0392472707268214
0,0401447709365466
0,0407580489201041
0,0410669250081656
0,0410672084866006
0,0407710747680985
0,0402062781263182
0,0394142428710592
0,0384471620559564
0,037364310904763
0,036227845753128
0,0350984031582845
0,0340308338949586
0,0330704007246519
0,0322497368930113
0,0315868062154388
0,0310840292938557
0,0307286495591473
0,0304943144934603
0,0303437493697699
0,0302323111982327
0,0301121367733698
0,0299365472212874
0,0296643468673789
0,0292636592114984
0,0287149773801811
0,0280131682924901
0,0271682542185685
0,0262048957073624
0,0251606078533008
0,0240828485396381
0,0230252136406025
0,0220430518555252
0,0211888640642737
0,0205078740371997
0,0200341468072924
0,019787588474292
0,0197720899792156
0,0199749832091385
0,020367868477838
0,0209087571866264
0,0215453620598546
0,0222192693573836
0,0228706512986174
0,0234431292509825
0,0238883832547129
0,0241701225954701
0,024267083876721
0,0241748030808797
0,0239060096672938
0,02348960523416
0,0229683069147507
0,0223951465173377
0,0218291110637153
0,0213302808316749
0,0209548614489615
0,0207505136966116
0,0207523581144558
0,0209799737171915
0,0214356262948996
0,0221038592052553
0,0229524670883275
0,0239347601930285
0,024992923463352
0,0260621887853968
0,0270754777957427
0,0279681411152938
0,0286824199237482
0,0291712868206106
0,029401381664121
0,0293548390154481
0,0290298995634256
0,0284403000293042
0,0276135357681634
0,0265881791612791
0,0254105077369449
0,0241307432213417
0,0227992231038284
0,0214628188907495
0,0201618815178082
0,0189279381842572
0,0177822917148688
0,0167355903514608
0,0157883501721569
0,0149323316194676
0,0141526027047711
0,0134300698859596
0,0127442271802367
0,0120758666123319
0,0114095082839293
0,0107353439288959
0,0100505398122582
0,00935980788953676
0,00867522230354275
0,00801532523343969
0,00740362602239365
0,006866645417783
0,00643168898991697
0,00612454834701636
0,00596732521179773
0,00597655312105271
0,00616175720880683
0,00652454811274019
0,00705829614204147
0,00774838131317885
0,00857296830843853
0,00950421686228788
0,0105098104381881
0,0115546711365069
0,0126027269157106
0,0136186075255191
0,0145691660178165
0,0154247503610424
0,0161601811125596
0,0167554226928457
0,0171959641905374
0,0174729480292101
0,0175830993018798
0,0175285141964458
0,0173163628699863
0,0169585514898197
0,0164713720121416
0,0158751491714424
0,0151938749874473
0,0144548047137887
0,0136879769599319
0,0129256165372638
0,0122013822986187
0,0115494338456558
0,0110033094242506
0,010594630727422
0,0103516761298956
0,0102978891143864
0,0104504102784645
0,010818736535794
0,0114036177254166
0,0121962973488655
0,0131781901588421
0,0143210653809347
0,015587772143496
0,016933505654812
0,0183075720468582
0,019655570093071
0,02092187276373
0,0220522641175118
0,0229965699260392
0,0237111154962022
0,0241608520856141
0,0243210137253943
0,0241781976267988
0,023730801257681
0,0229887943405854
0,0219728508963213
0,0207129111245582
0,0192462818781758
0,0176154146351947
0,015865518876745
0,0140421753552305
0,012189107551573
0,0103462514952667
0,00854823577049571
0,00682334759699771
0,00519302036125498
0,00367183643229446
0,00226799978551745
0,000984199101673718
-0,00018124394214777
-0,00123306262900493
-0,00217769632859324
-0,00302202645978475
-0,00377230385869056
-0,00443335080156785
-0,00500809165347595
-0,00549743359150236
-0,00590048581368859
-0,00621507502194872
-0,00643848905684106
-0,00656836153439667
-0,00660359941372746
-0,00654525339631033
-0,00639723771686656
-0,00616682058162973
-0,00586482770450684
-0,00550552731571895
-0,00510619337051524
-0,00468637215762034
-0,00426690379553046
-0,00386877207371405
-0,00351187210943863
-0,00321379400965857
-0,00298872161120326
-0,00284653825611093
-0,00279221709576156
-0,00282555257801385
-0,00294126426611185
-0,00312947569990246
-0,00337654194021763
-0,00366617176736858
-0,00398076643833006
-0,00430287823240001
-0,00461668027879909
-0,00490933532954536
-0,00517215571238746
-0,00540145951284009
-0,00559904834804361
-0,00577225860336141
-0,00593356887781419
-0,00609977949643269
-0,00629081276935753
-0,00652821286609669
-0,00683344923432362
-0,00722614543463415
-0,00772236444500979
-0,00833308096296548
-0,00906296065634876
-0,00990954627110087
-0,0108629221763602
-0,0119058943144626
-0,0130146841365394
-0,0141600958807043
-0,0153090795749029
-0,0164265804242056
-0,0174775415139187
-0,0184289130989186
-0,019251519564512
-0,0199216448752107
-0,0204222184919475
-0,0207435147604057
-0,0208833174390358
-0,0208465441191172
-0,0206443693911975
-0,0202929269675437
-0,0198117060749789
-0,019221783135747
-0,018544043795412
-0,0177975512385714
-0,0169982042720007
-0,0161578036598464
-0,0152836096889274
-0,014378430853248
-0,0134412365004326
-0,0124682393752453
-0,0114543512747796
-0,010394880319222
-0,00928731473815747
-0,00813302780349896
-0,00693874255270706
-0,00571761315527333
-0,00448981055308234
-0,00328254089346673
-0,00212947267743975
-0,0010695984241335
-0,000145604608973689
0,000598134407608255
0,00111779059463744
0,00137237703602595
0,00132593028668056
0,000949416523317474
0,000222220763133467
-0,000866886775574214
-0,00231936959088874
-0,00412714320831096
-0,00627335805568468
-0,00873366679135183
-0,0114778582624962
-0,0144717132955987
-0,0176789235641502
-0,0210629148730556
-0,024588430186391
-0,0282227542132491
-0,0319364978903591
-0,0357039043086409
-0,0395026837100273
-0,0433134299660067
-0,0471187105783302
-0,0509019532218823
-0,0546462715025478
-0,0583333792578456
-0,0619427358263907
-0,0654510448057304
-0,0688321976490568
-0,0720577135959073
-0,0750976822079233
-0,0779221679927145
-0,0805029920411433
-0,0828157669854325
-0,0848420320780877
-0,0865713172337243
-0,0880029599918195
-0,089147508130465
-0,0900275624859523
-0,0906779480174704
-0,091145143889066
-0,0914859523695683
-0,0917654382066331
-0,0920542212579237
-0,0924252519597658
-0,0929502385513572
-0,0936959240983479
-0,0947204283519925
-0,0960698731014624
-0,0977754996655797
-0,0998514640169902
-0,102293460128612
-0,105078277482278
-0,108164346952092
-0,111493273428222
-0,114992296875341
-0,118577569273705
-0,12215808622656
-0,125640071762856
-0,128931585427679
-0,131947103903997
-0,134611826320486
-0,136865463451182
-0,13866529583416
-0,139988323302648
-0,140832376682626
-0,141216118949828
-0,141177924937004
-0,140773692318928
-0,140073698431867
-0,139158673868097
-0,138115311267359
-0,137031463259183
-0,135991304651632
-0,135070739085781
-0,134333318751468
-0,133826917701249
-0,133581356162321
-0,133607117395567
-0,133895233308525
-0,134418344192879
-0,135132866025405
-0,135982130351045
-0,136900301345685
-0,137816826267663
-0,138661142401415
-0,13936734813079
-0,139878549035167
-0,140150611739491
-0,140155097262405
-0,139881199158687
-0,139336576196988
-0,138547040313433
-0,13755513327088
-0,136417694939064
-0,135202587790224
-0,133984792019713
-0,132842120541714
-0,131850820982633
-0,131081331890325
-0,13059444320009
-0,130438078259965
-0,130644869099484
-0,13123064169589
-0,132193867793628
-0,133516078586518
-0,135163177421443
-0,137087537351653
-0,139230727834294
-0,141526685391927
-0,143905126825441
-0,146295000810687
-0,148627783776485
-0,150840447307626
-0,152877954766918
-0,154695181839655
-0,156258196404606
-0,157544874723815
-0,158544870823366
-0,159258991798269
-0,159698061805713
-0,159881380474515
-0,159834896554705
-0,159589224659554
-0,159177632199284
-0,158634115625276
-0,157991670893296
-0,157280843764208
-0,156528622459222
-0,155757709688602
-0,154986184612872
-0,154227539235816
-0,153491049509719
-0,152782420356356
-0,152104627067414
-0,151458864236537
-0,150845508358605
-0,150265002026395
-0,149718576531484
-0,149208745384133
-0,148739523055459
-0,148316349918774
-0,147945734136855
-0,14763465188203
-0,147389776269147
-0,147216630007363
-0,147118774354137
-0,147097155180203
-0,147149724023187
-0,147271436949644
-0,14745470691947
-0,147690347345036
-0,147968997969998
-0,148282972553089
-0,148628415414987
-0,149007605596039
-0,149431208237768
-0,149920247598494
-0,150507568752235
-0,151238568208345
-0,15217100840848
-0,153373786355706
-0,15492459955122
-0,156906537993164
-0,159403722583392
-0,162496200100608
-0,166254384499956
-0,170733395491464
-0,175967680943961
-0,18196631418786
-0,188709327788421
-0,196145381802537
-0,204190970077726
-0,212731249164738
-0,221622440099907
-0,230695615006703
-0,239761550903055
-0,248616225088269
-0,257046451895482
-0,264835129070023
-0,271765579878387
-0,277624546448228
-0,282203508323725
-0,285298160426365
-0,28670607481467
-0,286222775332737
-0,283636655327159
-0,27872334702286
-0,271240288325401
-0,260922312559244
-0,247479096792759
-0,230595238083378
-0,209933583671911
-0,185142227235933
-0,155865311718834
-0,121757468986912
-0,0825014012614607
-0,0378277954346963
0,012463513760784
0,068482426500286
0,130228925950357
0,197576333809769
0,270258828091194
0,347864381107827
0,429833979004939
0,515467606122695
0,603937043948048
0,694305076990088
0,785550251558895
0,876595933499929
0,966342090408128
1,05369801041224
1,13761408317894
1,21711081957524
1,29130347389633
1,35942094497157
1,42081804768244
1,4749807334617
1,52152435955847
1,56018562115395
1,59080922642839
1,61333077420768
1,62775755520337
1,63414911864717
1,63259941508617
1,62322214454332
1,60614062089933
1,5814830334871
1,54938348046206
1,50998860715598
1,46346915138815
1,41003522122573
1,34995374945335
1,28356631582993
1,21130542555563
1,13370739018817
1,05142017224795
0,965204910479341
0,875930311051534
0,784559633241737
0,692130572552568
0,599728903357732
0,50845724199577
0,419400689791999
0,333591382266093
0,251974085228948
0,175374932581498
0,104475199537005
0,0397916662231348
-0,018335321523351
-0,0697455083039878
-0,114454068659321
-0,152639137000517
-0,184622523333555
-0,210845010762073
-0,231837916732451
-0,248192754373185
-0,260530847473087
-0,269474638095044
-0,275622195308829
-0,279526111172049
-0,281677586102242
-0,28249609344566
-0,282324605826219
-0,28142999463174
-0,280007904463995
-0,278191175382463
-0,276060748054208
-0,273657942891756
-0,270997048247328
-0,268077272401823
-0,264893291683273
-0,261443841826708
-0,257738029596597
-0,253799265903625
-0,249666921855357
-0,245395971478371
-0,241055000195696
-0,23672302298633
-0,23248557195789
-0,228430485887936
-0,224643773374353
-0,221205838056686
-0,218188260984441
-0,215651243051915
-0,213641729212494
-0,212192172973357
-0,211319858536032
-0,211026679667361
-0,211299276972665
-0,212109454202253
-0,213414823596068
-0,215159663249947
-0,217275999640557
-0,219684950048901
-0,22229836889274
-0,225020836846313
-0,227752012376215
-0,230389334173291
-0,232831023840066
-0,234979296129963
-0,236743644624918
-0,238044039300607
-0,238813853540909
-0,239002335023443
-0,23857644895586
-0,237521953111362
-0,235843609652696
-0,233564495192624
-0,230724432838572
-0,22737763253417
-0,223589683106924
-0,219434085893688
-0,214988551366491
-0,210331294169974
-0,205537557178372
-0,200676572302564
-0,195809127099541
-0,19098585540257
-0,186246311957183
-0,181618830581146
-0,17712110796398
-0,172761405646409
-0,168540224853649
-0,164452285326326
-0,160488631336378
-0,156638695318252
-0,1528921704021
-0,149240574645983
-0,145678428277035
-0,142204006637702
-0,138819671612668
-0,135531819381924
-0,13235050943989
-0,129288856950114
-0,12636227694356
-0,123587665007138
-0,120982586438285
-0,118564526790317
-0,116350234188642
-0,114355160999116
-0,112592992371686
-0,111075234435873
-0,10981082729603
-0,108805748303783
-0,108062579193848
-0,107580025406162
-0,107352395223583
-0,107369067598036
-0,107613997784085
-0,108065326142414
-0,108695165232208
-0,109469641575319
-0,110349260291694
-0,111289643139764
-0,112242664442606
-0,113157976983374
-0,113984884061275
-0,114674477901318
-0,115181932072503
-0,115468809923252
-0,115505235186866
-0,115271767005074
-0,11476083066443
-0,113977577347481
-0,112940079805084
-0,111678813752816
-0,110235423664436
-0,108660822605208
-0,107012724654343
-0,105352751195695
-0,10374328535184
-0,102244269201213
-0,100910144425287
-0,0997871280247909
-0,0989109914610116
-0,0983054757972502
-0,0979814301128367
-0,0979367092233632
-0,0981568137555992
-0,098616205044108
-0,0992801831112645
-0,100107181500828
-0,101051310354973
-0,102064970335331
-0,103101364871266
-0,104116755964952
-0,105072337307258
-0,105935635014046
-0,106681387475291
-0,107291898019464
-0,10775689378398
-0,108072958225395
-0,108242630604685
-0,108273281883148
-0,108175882127899
-0,107963769926885
-0,107651520741445
-0,107253990340191
-0,10678558399375
-0,106259774559335
-0,105688865660047
-0,105083972310897
-0,104455172469333
-0,103811770531041
-0,103162608310236
-0,102516360580396
-0,101881759995519
-0,101267709015712
-0,100683252614325
-0,100137403311438
-0,0996388275895274
-0,0991954183941943
-0,09881379086899
-0,0984987467789522
-0,0982527568184896
-0,0980755091091015
-0,0979635671467399
-0,0979101718984446
-0,0979052117218359
-0,0979353712716053
-0,0979844577070056
-0,098033890276038
-0,098063328557044
-0,0980514059624751
-0,0979765288936236
-0,097817698480015
-0,0975553110594828
-0,0971718954136523
-0,0966527489348299
-0,0959864410968706
-0,095165160383694
-0,0941848898198469
-0,0930454059385743
-0,0917501059746142
-0,0903056777607772
-0,0887216356934689
-0,0870097537657682
-0,0851834324306393
-0,0832570396352224
-0,0812452672812244
-0,0791625425106888
-0,077022528491594
-0,0748377420144892
-0,0726193056386103
-0,0703768409822797
-0,0681184979332683
-0,0658511030116771
-0,0635803999678202
-0,0613113478615374
-0,0590484373022235
-0,056795984726432
-0,0545583678946693
-0,0523401729914299
-0,0501462342774849
-0,0479815602577626
-0,0458511544277619
-0,0437597525210168
-0,0417115101363522
-0,0397096833671682
-0,0377563493584052
-0,0358522128606854
-0,0339965386299028
-0,0321872382007577
-0,0304211241371705
-0,028694326687291
-0,0270028486643538
-0,0253432163337601
-0,0237131691301369
-0,0221123209452411
-0,0205427219236611
-0,0190092529389664
-0,0175197953869458
-0,0160851359103397
-0,0147185878625846
-0,0134353368033687
-0,0122515436522833
-0,0111832638471005
-0,0102452613258035
-0,00944981028861396
-0,00880558379880418
-0,00831672540346758
-0,00798218814686806
-0,00779540529215909
-0,00774433052639094
-0,00781185464751679
-0,00797657352096047
-0,00821385148435548
-0,00849709816307035
-0,00879915746326313
-0,00909369714776572
-0,00935648694107393
-0,00956646274829011
-0,00970649340029194
-0,00976379276270086
-0,00972995159657415
-0,00960059736572159
-0,00937472321467784
-0,0090537564929773
-0,00864045997469426
-0,00813777323379353
-0,00754770632544011
-0,00687039271059825
-0,0061033937917869
-0,00524132503709414
-0,00427584546699949
-0,00319602089704294
-0,00198903949925898
-0,000641228655648265
0,000860702854890771
0,00252829172791485
0,00436992112810132
0,00638950330971344
0,00858534576214575
0,010949289998554
0,0134661934873592
0,0161138024969946
0,0188630386011242
0,0216786961126381
0,0245205234099636
0,0273446392925102
0,0301052171837842
0,0327563556960407
0,0352540441347233
0,0375581258757336
0,03963416103596
0,0414550922738685
0,0430026235632118
0,0442682313347992
0,0452537402363259
0,0459714119843714
0,0464435152630444
0,0467013671749069
0,0467838620903584
0,0467355310881885
0,0466042036220472
0,0464383710626567
0,0462843776308753
0,0461835858941225
0,046169679252342
0,0462662706697821
0,0464849834947543
0,0468241554023197
0,0472682898152397
0,0477883411268682
0,0483428721809839
0,0488800673049718
0,0493405251980653
0,0496606973270652
0,0497767837567875
0,049628854146893
0,049164931265887
0,0483447612358709
0,0471430012134697
0,0455515821516827
0,0435810509667951
0,0412607604206465
0,0386378522496737
0,0357750642697636
0,03274747891198
0,0296384122244878
0,0265347120056408
0,0235217853641695
0,0206787048268268
0,0180737448149138
0,0157606758502145
0,0137760930965613
0,0121379821065539
0,0108456331055051
0,00988091261985896
0,00921079584517913
0,00879096315309647
0,00857017797071749
0,0084950981394927
0,00851513462418129
0,00858696379487356
0,00867832362044824
0,00877077874534708
0,00886122051480418
0,00896196947989734
0,00909946166290178
0,00931161672755421
0,0096440966303899
0,010145758015597
0,0108636726230901
0,0118381310179369
0,0130980523060229
0,0146571951422414
0,0165115050878826
0,0186378449272045
0,020994244816402
0,0235216870644757
0,0261473157877277
0,0287888449091256
0,0313598386234892
0,0337754647331745
0,0359582793981316
0,0378435953109213
0,039384014804062
0,0405527725399221
0,0413456241322133
0,0417811298529539
0,0418993072758849
0,0417587532403057
0,0414324535815331
0,04100259925901
0,0405548018236902
0,0401721438600423
0,039929507983753
0,0398886008803
0,0400940293930341
0,0405706989385678
0,041322697981233
0,0423337147312637
0,0435689132955084
0,0449780857766971
0,0464998029629405
0,048066216541582
0,0496081252000158
0,0510599082194849
0,0523639531381127
0,0534742561314133
0,0543589500446034
0,0550016086433849
0,0554012786674358
0,0555712950123859
0,0555370304134893
0,0553328117638811
0,0549982944863338
0,0545746200205019
0,0541006873941108
0,0536098483934615
0,0531272895246575
0,0526682973000557
0,0522375224635306
0,0518292706033816
0,0514287587464824
0,0510141971463885
0,0505594890985364
0,0500372943070565
0,0494221765462413
0,0486935556208124
0,0478382063386093
0,046852091036
0,04574137290526
0,0445225296817783
0,0432215648299235
0,0418723897425776
0,0405145193670098
0,039190279491296
0,0379417624222776
0,0368077859883821
0,0358211076855306
0,0350061218969202
0,0343772257992388
0,0339379825852783
0,0336811438088424
0,0335895216917653
0,0336376328292788
0,0337939726319765
0,0340237298759765
0,034291716837207
0,034565275192903
0,0348169221025443
0,035026524182121
0,0351828271868166
0,0352842228703568
0,0353386970892655
0,0353629697488875
0,0353809022477395
0,0354213064455677
0,0355153363507087
0,0356936759154287
0,0359837512500032
0,0364071920508268
0,0369777456194253
0,0376998093178421
0,0385676967825049
0,039565693846266
0,0406688966122404
0,041844761655297
0,0430552417720285
0,0442593346150598
0,0454158395019965
0,0464861022156897
0,0474365299023056
0,0482406779584832
0,0488807465266494
0,0493483729355183
0,0496446642801016
0,0497794766330916
0,0497700091239458
0,0496388373287232
0,0494115564936641
0,0491142373279132
0,0487709127249055
0,0484013114750571
0,0480190348641574
0,0476303355498202
0,0472336081146695
0,0468196412151775
0,046372617065317
0,0458717803524456
0,0452936408642996
0,0446145268892626
0,0438132739499808
0,0428738184148961
0,0417874695263199
0,0405546562560461
0,0391859854433237
0,0377025018446336
0,0361351045776968
0,0345231428785693
0,0329122814048914
0,0313517859192677
0,0298914290222859
0,0285782484657798
0,02745340470182
0,0265493784127636
0,0258877232542723
0,0254775460465425
0,0253148297179814
0,0253826482353735
0,0256522531020012
0,0260849435747042
0,0266345732272661
0,0272504987310289
0,0278807465349931
0,0284751618260874
0,0289883123113747
0,0293819460130704
0,0296268446179828
0,0297039680501705
0,029604846810769
0,0293312407515773
0,0288941408994465
0,028312239649649
0,0276100301755429
0,0268157154734869
0,025959109926447
0,025069702095492
0,0241750185887295
0,0232993886961076
0,0224631623084945
0,0216823843318973
0,0209688823666537
0,0203306853431449
0,0197726628456801
0,0192972605093112
0,0189052072084393
0,0185960843815946
0,0183686748081666
0,0182210443322502
0,0181503513333549
0,0181524205081237
0,0182211551387255
0,018347891166031
0,0185208136741193
0,0187245596440298
0,0189401192166953
0,0191451220664124
0,0193145579895608
0,0194219350574928
0,0194408291254339
0,0193467301514813
0,019119048755221
0,018743115344027
0,018211987677987
0,0175278833547892
0,0167030722016011
0,0157600991251478
0,0147312580648766
0,0136572982815558
0,0125854101714283
0,0115666031994101
0,0106526473874073
0,00989279636614597
0,00933053954306699
0,00900064010117464
0,00892670264485003
0,00911947969552406
0,00957607216738658
0,0102801095551281
0,0112029164801592
0,0123055901211772
0,0135418350963596
0,0148613355309363
0,0162133945542638
0,0175505441476114
0,0188318260645345
0,020025468287118
0,0211107296683633
0,0220787542967639
0,0229323610974931
0,023684786076296
0,024357486453125
0,0249771995744707
0,0255725173186966
0,0261702824867284
0,0267921328989481
0,0274515095255044
0,0281514073688146
0,0288830849587933
0,0296258655152341
0,0303480672494152
0,0310090002908016
0,0315618723089711
0,031957362583639
0,03214756259073
0,0320899458169679
0,0317510238052551
0,0311093701230489
0,0301577469102997
0,0289041453136307
0,0273716446145322
0,0255970968775831
0,023628745304833
0,0215229761434686
0,0193404776895423
0,0171421291831612
0,0149849628242681
0,0129185321372685
0,0109819805939291
0,00920203953706237
0,00759210016285976
0,00615240840404311
0,00487133283608168
0,00372756314485196
0,00269301852939802
0,00173618849876142
0,000825597660918408
-6,69164500009103E-05
-0,000963398001035922
-0,00187767494632312
-0,00281413318822307
-0,00376744410674328
-0,00472323841139647
-0,00565963417597398
-0,0065494527555175
-0,00736289959725156
-0,00807045239570522
-0,00864568911718188
-0,00906780322456641
-0,00932359075915807
-0,00940874953387941
-0,00932839870201389
-0,00909680064476824
-0,00873633932090447
-0,00827587334956973
-0,00774863242217467
-0,00718985813898605
-0,00663440272630294
-0,00611449116693334
-0,00565782573134751
-0,00528617024287267
-0,00501449932997787
-0,00485074096852418
-0,00479608451054278
-0,00484577648570692
-0,00499028725512444
-0,00521670626616559
-0,00551021391551954
-0,00585548387376284
-0,00623788970552095
-0,00664442082832014
-0,00706425154762728
-0,00748894864812662
-0,00791234341167406
-0,0083301288455024
-0,00873926904786763
-0,00913732272995011
-0,00952178595054593
-0,00988955036828521
-0,0102365542485157
-0,0105576765794141
-0,0108468930869667
-0,0110976802995547
-0,0113036235434851
-0,0114591600539616
-0,0115603716719502
-0,0116057344602816
-0,0115967354978082
-0,0115382796241144
-0,0114388294636501
-0,0113102484571292
-0,0111673460313664
-0,0110271534302326
-0,0109079851700184
-0,0108283619594347
-0,0108058842773823
-0,0108561504424422
-0,0109918086366562
-0,0112218195510772
-0,0115509865427151
-0,011979785431152
-0,0125044988869309
-0,0131176333764896
-0,0138085724534471
-0,0145644010341361
-0,0153708228650984
-0,0162130886292042
-0,0170768552729814
-0,0179489075281476
-0,0188176889906257
-0,0196736106456947
-0,0205091271898171
-0,021318593619134
-0,0220979341272488
-0,0228441705789025
-0,0235548673993368
-0,0242275530160038
-0,0248591750451104
-0,0254456380194084
-0,0259814598346865
-0,026459568045398
-0,0268712414984802
-0,0272061885054343
-0,0274527414003047
-0,0275981401564027
-0,0276288753024882
-0,0275310627354183
-0,0272908294196611
-0,0268946982491003
-0,0263299708543564
-0,025585117067049
-0,0246501873161486
-0,0235172679126983
-0,0221809979321628
-0,0206391598367309
-0,0188933443910989
-0,0169496748445244
-0,0148195574891125
-0,012520407640041
-0,0100762842798012
-0,00751835538503717
-0,00488511141991105
-0,00222224811295238
0,000417847781203971
0,00297705471903236
0,00539293059484231
0,0076005663622828
0,00953482297539753
0,0111328585149039
0,0123368191657182
0,0130965417541684
0,0133720996863263
0,0131360205113649
0,0123750130712276
0,0110910652797742
0,00930180879558258
0,00704009189781899
0,00435275349144602
0,00129864541246285
-0,0020539971417335
-0,00563069044881367
-0,00935415861345315
-0,0131479033089675
-0,0169396692123354
-0,0206645935898985
-0,0242678499324296
-0,0277066307119806
-0,0309513604442449
-0,0339860838036358
-0,0368080303658499
-0,0394264133504851
-0,0418605703140441
-0,0441375954403604
-0,0462896429365614
-0,0483510972097411
-0,0503558071256806
-0,0523345691104196
-0,0543130185677445
-0,0563100533930954
-0,058336870338556
-0,0603966480984598
-0,0624848638622781
-0,0645901861993108
-0,066695849562551
-0,068781386802753
-0,0708245775638427
-0,0728034629814972
-0,0746982806625852
-0,076493187506185
-0,0781776599511448
-0,0797474895047604
-0,081205323519308
-0,0825607344874434
-0,0838298332308059
-0,0850344700059999
-0,0862010910437858
-0,0873593351067937
-0,0885404647221287
-0,0897757297056001
-0,0910947570048961
-0,0925240516423451
-0,0940856799464118
-0,0957961897802752
-0,0976658046533334
-0,0996979108603971
-0,101888840427487
-0,10422793859413
-0,106697893470422
-0,109275297660155
-0,1119314069575
-0,114633059338199
-0,117343717798284
-0,120024602422767
-0,122635879618455
-0,125137879036277
-0,127492310749298
-0,129663456389394
-0,131619308030959
-0,13333262774795
-0,134781899292001
-0,135952141750113
-0,136835553938441
-0,137431958340714
-0,137749015200674
-0,137802181396414
-0,137614395240902
-0,137215477425473
-0,136641249709572
-0,135932386186165
-0,135133026298284
-0,134289193344395
-0,133447075960138
-0,132651241947861
-0,13194286283651
-0,131358032810332
-0,130926266474381
-0,130669255933297
-0,130599958739124
-0,130722074650539
-0,131029951387252
-0,131508938497963
-0,132136185192406
-0,132881853788985
-0,133710696692999
-0,134583922975124
-0,135461262041507
-0,136303117796522
-0,137072698146563
-0,137738002415185
-0,138273553656467
-0,138661774014911
-0,138893918852439
-0,138970508597356
-0,138901225080416
-0,13870427004984
-0,138405215911601
-0,138035410608062
-0,137630027946649
-0,137225879651645
-0,136859124131582
-0,136563017857304
-0,136365857219519
-0,136289251100249
-0,136346847101833
-0,136543608006559
-0,136875700839423
-0,137331020713969
-0,137890327906067
-0,138528932143396
-0,139218816027617
-0,139931052976159
-0,140638347069807
-0,141317505276329
-0,141951648646865
-0,142531979338516
-0,143058944830489
-0,143542678518951
-0,144002644961944
-0,144466475364978
-0,144968040568953
-0,145544870338421
-0,146235084382574
-0,147074047583813
-0,148090995088619
-0,149305888840426
-0,1507267635312
-0,152347795981461
-0,154148288376703
-0,156092694993522
-0,158131747922227
-0,160204655101362
-0,162242259901948
-0,164170972235733
-0,165917213371456
-0,167412066443097
-0,16859579693371
-0,169421905576479
-0,169860401455896
-0,169900034739064
-0,169549303249108
-0,168836139770382
-0,167806290457001
-0,166520500716868
-0,165050724516497
-0,163475657424451
-0,161875954996995
-0,160329530117408
-0,158907321659965
-0,157669891225128
-0,15666513645078
-0,155927313364516
-0,155477443851764
-0,155325057253052
-0,155471088343637
-0,155911639029282
-0,156642218902251
-0,157662019715462
-0,158977757656465
-0,160606638647429
-0,162578065548029
-0,164933808056445
-0,16772648844225
-0,171016388056624
-0,174866737509377
-0,179337803028314
-0,184480208398633
-0,190328023143695
-0,196892193015249
-0,204154882130003
-0,212065235451863
-0,22053695915013
-0,229447962890232
-0,238642125148151
-0,247933046311204
-0,257109463051109
-0,2659418299743
-0,274189448512311
-0,281607452883636
-0,287952958832067
-0,292989746896415
-0,296490986039479
-0,29823969661946
-0,298026888925158
-0,295647574573285
-0,290895109301842
-0,283554561798413
-0,273395989708087
-0,260168619399795
-0,243596954226261
-0,223379767694894
-0,199192772233605
-0,170695499009279
-0,137542596026431
-0,0993993746531453
-0,0559610387204201
-0,00697464892657171
0,0477374574358365
0,108254323526023
0,17453478378219
0,246399324387406
0,32351697307791
0,405398548900833
0,491397234005379
0,580716965790832
0,672428622046144
0,765493423962618
0,858792455389015
0,951160734573369
1,04142391619368
1,12843547871216
1,21111218670208
1,28846571907802
1,35962861781874
1,42387311994158
1,48062195789823
1,52945080980077
1,57008270362625
1,60237527837917
1,6263023309076
1,6419314858131
1,64940008306039
1,64889146115707
1,64061371525902
1,62478273664311
1,60161091493193
1,57130234261803
1,53405474840516
1,49006775366941
1,43955644891304
1,38276877578975
1,32000481934311
1,25163589782505
1,17812130321616
1,10002069816313
1,018000502233
0,932833074995891
0,845388085647194
0,756616099669022
0,667525058437849
0,579150923493948
0,492524253572393
0,408634838323626
0,328396698956349
0,252615768426725
0,181962383514622
0,116950374831067
0,0579240588126897
0,00505385939158705
-0,0416593353083227
-0,0823715928509414
-0,117376206454733
-0,147078351529542
-0,171965994998614
-0,192579097956636
-0,209479162817882
-0,223221028723669
-0,2343285324884
-0,243275256693944
-0,250471119633263
-0,256255066057754
-0,260893635891021
-0,264584759848829
-0,267465789080521
-0,26962453413446
-0,271111979273175
-0,271955352477706
-0,272170359165452
-0,27177160894339
-0,270780552491757
-0,269230568322148
-0,267169163797841
-0,264657550458645
-0,261768094057499
-0,258580305406357
-0,255176118318946
-0,25163519375665
-0,248030901726314
-0,24442747917162
-0,240878663584927
-0,237427882340973
-0,234109861932433
-0,230953332837427
-0,227984364323464
-0,225229783037746
-0,222720116837697
-0,220491560620614
-0,218586576513314
-0,217052903083186
-0,215940939015036
-0,215299665082136
-0,215171452858732
-0,21558625971448
-0,216555811072985
-0,218068411708915
-0,220085003156545
-0,222536995814606
-0,225326260078145
-0,228327474292937
-0,231392816051797
-0,234358767327621
-0,237054603526478
-0,239311970698214
-0,240974839499246
-0,241909070109492
-0,242010834447941
-0,241213220005314
-0,239490476681342
-0,236859552200503
-0,233378776825523
-0,229143785440852
-0,224280984939365
-0,218939068341791
-0,213279227909985
-0,20746481522213
-0,201651229306023
-0,195976782483545
-0,190555201257615
-0,185470275101033
-0,180772982558703
-0,176481217802361
-0,172582029493034
-0,169036085318473
-0,165783906245151
-0,162753287762906
-0,159867250695303
-0,157051846309052
-0,154243179269954
-0,151393102471465
-0,148473170628375
-0,145476602177327
-0,142418176652616
-0,139332171774966
-0,136268605890244
-0,133288183971997
-0,130456438838282
-0,12783760699431
-0,125488778166923
-0,123454811067338
-0,121764420948561
-0,120427726260335
-0,119435403649462
-0,118759455512159
-0,118355455234988
-0,118166014073357
-0,118125120238663
-0,118162942202401
-0,11821066822408
-0,118204972715564
-0,118091753999707
-0,117828870871661
-0,117387708478896
-0,116753517194011
-0,115924580731148
-0,114910371583195
-0,113728934187081
-0,112403792481596
-0,110960704747707
-0,109424583875763
-0,107816867331724
-0,106153562682309
-0,104444118104588
-0,102691180886437
-0,100891219003818
-0,099035899769244
-0,0971140524967641
-0,0951139947432097
-0,093025977411308
-0,0908445039135996
-0,088570301485635
-0,0862117651456439
-0,0837857516960921
-0,0813176662594833
-0,0788408505139522
-0,0763953434912752
-0,0740261369433458
-0,0717810835446032
-0,0697086350384788
-0,0678555881826011
-0,0662650001759526
-0,064974405055313
-0,0640144223918143
-0,0634078044970428
-0,0631689233401983
-0,0633036583979958
-0,0638096156539913
-0,0646765888028747
-0,0658871676811463
-0,0674174058223023
-0,0692374771142217
-0,0713122778172654
-0,0736019608822068
-0,0760624202327148
-0,0786457693065041
-0,081300876918758
-0,0839740317530332
-0,0866098029818743
-0,0891521486847167
-0,0915457972321998
-0,0937378923971456
-0,0956798543796313
-0,0973293705561815
-0,0986523961676838
-0,0996250205414148
-0,10023504229036
-0,100483099485812
-0,100383218949045
-0,0999626817688014
-0,0992611477052378
-0,0983290355960182
-0,0972252156040083
-0,096014126839401
-0,0947624851676193
-0,0935357859314363
-0,0923948307886179
-0,0913925141896163
-0,0905710920077749
-0,0899601231702
-0,0895752270675356
-0,0894177389977285
-0,0894752778982884
-0,0897231710004937
-0,0901266147743612
-0,0906433962809334
-0,0912269586423042
-0,0918295722106316
-0,0924053710604803
-0,09291303260604
-0,0933179147497929
-0,0935935164717411
-0,0937221894764733
-0,0936950947464783
-0,0935114626057644
-0,0931772724203414
-0,0927035132641387
-0,092104215990932
-0,091394457846224
-0,0905885325635566
-0,0896984530344355
-0,088732913064931
-0,0876967836294473
-0,0865911625651181
-0,0854139403770693
-0,0841607941243814
-0,0828264810033362
-0,0814062768625288
-0,0798973946947483
-0,0783002246889111
-0,0766192596504736
-0,074863604882525
-0,0730470161491664
-0,071187458460772
-0,0693062271383927
-0,0674267160651479
-0,0655729520281003
-0,0637680354169986
-0,0620326344243739
-0,0603836719806688
-0,0588333230545842
-0,0573884071914164
-0,0560502207827524
-0,0548148098211267
-0,053673641260065
-0,0526145938857355
-0,0516231614108639
-0,0506837439755676
-0,0497809008348876
-0,0489004466948778
-0,0480302957347092
-0,0471609883038081
-0,0462858722530133
-0,045400949926365
-0,0445044389083477
-0,0435961258653263
-0,042676615025821
-0,0417465837886552
-0,0408061564449293
-0,0398544932755942
-0,0388896676196678
-0,0379088703517506
-0,0369089428700911
-0,0358871998917045
-0,0348424661024665
-0,033776219700987
-0,0326937143318175
-0,0316049411226709
-0,0305252958541062
-0,0294758327769039
-0,0284830151982564
-0,0275779115710329
-0,026794831319368
-0,0261694434088973
-0,0257364686279215
-0,0255270796890933
-0,0255661778715133
-0,0258697379235667
-0,0264424221212429
-0,0272756585525911
-0,0283463578768442
-0,0296164080559458
-0,0310330401139626
-0,0325301029034087
-0,0340302249307123
-0,0354477807151228
-0,0366925222215458
-0,0376736867168909
-0,0383043545926419
-0,0385058071261411
-0,038211626727429
-0,0373712917830507
-0,0359530443547305
-0,0339458502400163
-0,0313603246556403
-0,0282285595514508
-0,0246028561677764
-0,0205534343482353
-0,0161652536630032
-0,0115341362374269
-0,00676242348228196
-0,00195442570658202
0,00278806699236518
0,00736995283589596
0,0117064318310679
0,0157258725757266
0,0193717944985754
0,0226038902684555
0,0253980796557718
0,0277456517204078
0,0296516119912511
0,0311324009548779
0,0322131861610618
0,0329249500809556
0,0333015983991239
0,0333772988713383
0,0331842308119306
0,0327508825173206
0,0321009822456972
0,0312530922250052
0,03022083927784
0,0290137046218056
0,0276382532969081
0,0260996536936574
0,024403321844865
0,0225565242743189
0,020569786674122
0,0184579816604857
0,0162410044527479
0,0139439868415426
0,0115970432225395
0,00923458367316227
0,00689426438572367
0,00461567224760955
0,00243885604634777
0,000402820842233734
-0,0014559051176904
-0,00310453844145311
-0,00451507527094449
-0,00566505264685345
-0,00653802583933722
-0,00712377769120646
-0,00741829746476722
-0,00742358070460835
-0,00714730701836285
-0,00660244939447635
-0,00580685764476091
-0,00478284174305046
-0,00355676083132277
-0,00215860351451115
-0,000621527877391803
0,00101868188085913
0,00272428901209457
0,00445644960265216
0,00617625714544479
0,00784599147373021
0,00943054923285785
0,0108990022222315
0,0122261998850689
0,0133943066530117
0,0143941473559704
0,0152262273788195
0,0159013006360811
0,0164403784808422
0,0168741056659478
0,017241473411658
0,0175878911736417
0,0179626935776485
0,018416212269995
0,0189965890694321
0,0197465420564967
0,0207003161481499
0,0218810515454878
0,0232987859518104
0,0249492701193037
0,0268137232275404
0,0288595885574309
0,0310422759194303
0,0333078011899922
0,0355961613943772
0,0378452221035461
0,0399948479117822
0,0419909806111067
0,0437893660281316
0,0453586501327802
0,0466826068556581
0,0477613211351762
0,0486112264294375
0,0492639805107077
0,0497642501668438
0,05016655767562
0,0505314131192011
0,0509210110917585
0,0513948039047853
0,0520052733022556
0,0527942082389333
0,0537897586074686
0,0550044768441946
0,0564344856866559
0,0580598266387795
0,0598459563880965
0,0617462741435321
0,0637054879277333
0,0656635678252712
0,0675599933640787
0,0693379834321069
0,0709484015200971
0,0723530560090627
0,0735271624085852
0,074460798153792
0,0751592558885836
0,0756422824365447
0,0759422718952665
0,0761015565878
0,076169003608226
0,0761961729284804
0,0762333222419166
0,0763255520325997
0,0765093714392436
0,0768099324887157
0,0772391297624128
0,0777946983247778
0,078460369448118
0,079207066635887
0,0799950491775542
0,0807768423088678
0,0815007368610219
0,0821146009869001
0,0825697250351458
0,0828244193923213
0,0828471041954956
0,0826186678861645
0,0821339258466788
0,0814020769536363
0,0804461299362521
0,079301347524073
0,0780128289171128
0,0766324146767895
0,0752151479508966
0,073815558173608
0,0724840454749521
0,071263634953794
0,070187340243319
0,0692763275897028
0,0685390085562878
0,0679711162800925
0,0675567426192104
0,0672702376385286
0,0670788047704996
0,0669455701700477
0,0668328678321379
0,0667054661220533
0,0665334679917402
0,0662946460199709
0,0659760223408879
0,0655745686830963
0,0650969778446227
0,0645585386887847
0,0639812253947464
0,0633911814847043
0,0628158339915657
0,062280908087647
0,061807624202439
0,0614103467353357
0,0610949165555229
0,0608578413331793
0,0606864429943399
0,0605599763669514
0,0604516445994191
0,0603313527957362
0,0601689689321112
0,0599378070909673
0,0596180174769147
0,0591995638252535
0,0586844926829036
0,0580882492868777
0,0574398677809854
0,0567809536230762
0,056163476018708
0,0556464898428303
0,0552920012149585
0,0551602705520959
0,0553049044841652
0,0557681181746456
0,0565765492313103
0,0577379729123801
0,0592392077137339
0,061045415123263
0,063100893918072
0,0653313560319128
0,0676475568410696
0,0699500469667614
0,0721347240498558
0,0740987987387405
0,0757467546919106
0,0769958806865735
0,077780984158427
0,078057957222507
0,0778059534501099
0,0770280392982432
0,0757502995608383
0,0740194921381478
0,0718994544847321
0,0694665537623857
0,0668045379428333
0,0639991809928586
0,0611331193597973
0,0582812495038512
0,0555070000679553
0,0528597125713711
0,0503732683675041
0,0480659952554684
0,045941783378468
0,0439922454544622
0,0421996784819188
0,0405405288889265
0,0389890345346827
0,0375207166103535
0,0361154215108344
0,0347596639846968
0,0334480932904841
0,0321839871250289
0,0309787663342251
0,0298506092853978
0,0288223210713593
0,0279186733367123
0,0271634708687241
0,0265766184382158
0,0261714550429639
0,0259525940068796
0,0259144594912801
0,0260406475448369
0,0263041685581442
0,0266685541307294
0,0270897411188198
0,0275185846739486
0,0279038050672975
0,0281951433625125
0,0283464902481522
0,0283187607080685
0,0280823131621272
0,0276187523593166
0,0269220066952536
0,0259986280286663
0,0248673205787797
0,0235577602712414
0,0221088127240749
0,0205662936137056
0,018980437201773
0,0174032464429699
0,0158858916903949
0,0144763061429821
0,0132170974403435
0,0121438594884138
0,0112839304259183
0,0106556053240695
0,0102677792095497
0,010119970086998
0,0102026547488824
0,0104978432102536
0,0109798203644062
0,0116159947438497
0,0123678119058667
0,013191711173093
0,0140401260964816
0,014862547827089
0,0156066837575586
0,0162197490177084
0,0166499243282548
0,0168480000472818
0,0167692037842386
0,0163751797173461
0,0156360546058784
0,0145324920990813
0,013057607305698
0,0112185916973947
0,00903788785253892
0,00655375701986094
0,00382010160158665
0,00090543954156822
-0,00210902308932939
-0,00513221423329296
-0,00806683766819613
-0,0108136896461362
-0,0132764398615919
-0,0153666109515488
-0,0170084514649668
-0,0181433787749764
-0,0187336739589939
-0,0187651416531908
-0,0182485035256401
-0,0172193713317417
-0,0157367395277235
-0,0138800413303709
-0,0117449179093819
-0,00943794952801293
-0,00707068138086206
-0,00475333810040511
-0,00258865344057654
-0,000666241707765667
0,000942095952509065
0,00218580263944145
0,00303749903330545
0,00349329681948679
0,00357149435223098
0,00330978215029917
0,00276120185734558
0,00198919898452011
0,00106217856770993
4,80076649850991E-05
-0,00099109392693417
-0,0020028732848076
-0,00294824687530345
-0,0038031603176194
-0,00455900035585135
-0,00522158275323632
-0,0058088652383999
-0,00634764540962791
-0,00686958964433936
-0,00740699277503743
-0,00798868472404983
-0,00863647804582032
-0,0093624915659114
-0,0101675956361809
-0,0110411124181889
-0,0119617806942321
-0,0128998707184034
-0,0138202223200118
-0,0146858895645833
-0,0154620162797385
-0,0161195443455979
-0,0166383729544937
-0,0170096405361912
-0,0172368866470521
-0,0173359606251914
-0,0173336667964007
-0,0172652606690585
-0,0171710249301299
-0,0170922471612599
-0,0170669840208055
-0,0171260230900787
-0,0172894409600016
-0,0175641054820867
-0,0179423860551746
-0,0184022261403983
-0,018908607113808
-0,0194163036887627
-0,019873710492043
-0,0202274181201289
-0,020427144508588
-0,0204305903884465
-0,0202077893010943
-0,0197445628974647
-0,0190447672404955
-0,0181311186539577
-0,0170445089007645
-0,0158418481322065
-0,0145925986111224
-0,0133742716652156
-0,0122672452089067
-0,0113493123786714
-0,010690389244265
-0,0103477903609738
-0,0103624275921878
-0,0107562056236851
-0,0115307847969994
-0,0126677678379236
-0,0141302519770942
-0,0158655818586821
-0,0178090503628629
-0,0198882309685967
-0,0220275909969334
-0,0241530316698057
-0,0261960271864602
-0,0280970871649128
-0,0298083388476444
-0,0312951099697209
-0,0325364819349322
-0,03352486778685
-0,0342647431155052
-0,0347707146392011
-0,0350651468994116
-0,0351755806199439
-0,0351321674137361
-0,0349653173442871
-0,0347037126844356
-0,0343727885962214
-0,0339937253879618
-0,0335829434303036
-0,0331520459349106
-0,0327081206357616
-0,0322542914260141
-0,031790405922722
-0,0313137538368221
-0,0308197314455721
-0,0303023958519998
-0,0297548847948198
-0,0291697091353984
-0,028538951721711
-0,0278544248353577
-0,0271078467401616
-0,0262910951948324
-0,0253965827932805
-0,0244177775564176
-0,0233498652957191
-0,0221905214971685
-0,020940733716665
-0,019605594377892
-0,01819497141929
-0,0167239624887197
-0,015213048121042
-0,0136878800528435
-0,0121786707289933
-0,0107191863018038
-0,00934538431717235
-0,0080937748407974
-0,00699961594058484
-0,00609507768224711
-0,00540752040229973
-0,00495803136009634
-0,00476034867979298
-0,00482027375418923
-0,00513563530186373
-0,0056968232976256
-0,00648786306743483
-0,00748795324647813
-0,00867335028097578
-0,0100194504784724
-0,0115029011563411
-0,0131035670734518
-0,0148061875843826
-0,0166015831351615
-0,0184873048878032
-0,0204676654673119
-0,022553138374791
-0,0247591644005755
-0,0271044512469592
-0,0296088936733726
-0,0322912725859863
-0,0351669102448448
-0,0382454638237709
-0,0415290307448544
-0,0450107173776257
-0,0486737897208865
-0,0524914832273799
-0,0564275022077842
-0,0604371907563504
-0,064469310408566
-0,0684683180296395
-0,0723770035203501
-0,0761393229802623
-0,0797032503150827
-0,0830234694893788
-0,0860637404165534
-0,0887987928107054
-0,0912156325497063
-0,0933141820242162
-0,0951072170834373
-0,0966196058541207
-0,0978868962815596
-0,0989533371849846
-0,0998694497910853
-0,100689291326573
-0,101467568022805
-0,102256761115175
-0,103104425923226
-0,104050811299974
-0,105126925549541
-0,10635314674031
-0,10773844195593
-0,109280223491386
-0,110964832544664
-0,112768604833305
-0,114659439984354
-0,116598769416847
-0,118543797413837
-0,120449878304778
-0,122272889782291
-0,123971468414587
-0,125508987826926
-0,126855181695923
-0,127987340981751
-0,128891045713865
-0,12956042382087
-0,129997960625118
-0,130213910376157
-0,130225383605092
-0,130055199561625
-0,129730600536934
-0,129281924185505
-0,128741321384287
-0,128141591785715
-0,127515188666887
-0,126893421095536
-0,126305857142346
-0,125779909361513
-0,125340565241347
-0,125010212660172
-0,124808504846891
-0,12475221147997
-0,124855012106649
-0,125127204009573
-0,125575317247695
-0,126201652535394
-0,127003780314393
-0,127974059074414
-0,12909924521462
-0,130360273441591
-0,131732284556247
-0,133184965973222
-0,134683249947374
-0,136188386647827
-0,137659376225771
-0,139054708803891
-0,14033432722508
-0,141461697902537
-0,142405853411358
-0,143143259198647
-0,143659357751465
-0,143949657490738
-0,144020260074786
-0,143887757047486
-0,143578472125152
-0,143127075251165
-0,142574644650411
-0,141966299124518
-0,141348560516307
-0,140766632038974
-0,140261789335448
-0,139869076308171
-0,139615476799371
-0,139518697562418
-0,139586650313768
-0,139817664860454
-0,140201406009538
-0,140720409268358
-0,141352099236658
-0,142071114599597
-0,142851738389498
-0,14367022399487
-0,14450681718907
-0,145347301447768
-0,146183935830672
-0,147015708060917
-0,147847885552961
-0,148690908700668
-0,149558728372007
-0,150466738147755
-0,151429487126596
-0,152458378036201
-0,153559556317045
-0,154732178839401
-0,155967217639228
-0,157246907658018
-0,158544892249363
-0,159827061300681
-0,161053019571675
-0,162178072440475
-0,163155577161813
-0,163939483270954
-0,164486877807034
-0,16476035983149
-0,164730092903435
-0,164375420839833
-0,16368597719238
-0,162662267536853
-0,161315750743944
-0,159668486013659
-0,157752442438646
-0,15560858429099
-0,153285846642348
-0,150840102600426
-0,148333197260663
-0,145832087862396
-0,143408089141436
-0,141136182721999
-0,139094314937031
-0,137362583563976
-0,136022204472174
-0,135154156415935
-0,13483742668269
-0,135146820525097
-0,136150349854847
-0,137906276430356
-0,140459945386542
-0,143840599458333
-0,148058405668678
-0,153101948472507
-0,158936441679695
-0,165502883351805
-0,172718323172414
-0,180477333168549
-0,188654675369185
-0,197109051641469
-0,205687710998225
-0,214231588518318
-0,222580568300748
-0,230578410228869
-0,238076864704707
-0,244938526020042
-0,251038045546137
-0,256261438352818
-0,260503365349108
-0,263662447914764
-0,265634860548779
-0,266306634296767
-0,265545273533869
-0,263191425143637
-0,259051427804067
-0,252891598468307
-0,244435075585093
-0,233361931536505
-0,21931309290245
-0,201898374897002
-0,180708659155078
-0,155331940131504
-0,125372656002678
-0,0904734283525032
-0,0503380843053683
-0,00475464670835575
0,0463831295818091
0,10305711133384
0,165110380610483
0,232238233329665
0,303985471130554
0,379750522672819
0,458796524166915
0,540269055317092
0,623219795920586
0,706634971131069
0,78946711961261
0,87066847464216
0,949224114154094
1,02418302478205
1,09468534142853
1,15998426276877
1,21946149006171
1,27263546893122
1,31916220161498
1,35882890587285
1,3915412891478
1,41730564594813
1,43620733917856
1,44838746461818
1,45401960234958
1,45328852005195
1,44637251180356
1,43343074460989
1,41459656568857
1,38997722783216
1,35965995552794
1,32372374224381
1,28225578101848
1,23537102505561
1,18323308517614
1,12607452084319
1,06421458435421
0,998072635083382
0,928175741503939
0,855159410800902
0,779760897067753
0,70280509992788
0,625183632309616
0,547828164729494
0,471679602359602
0,397654985207051
0,326614194823808
0,259328588239929
0,196453558815867
0,138506754559581
0,0858532889551454
0,0386987891237932
-0,00290941997220895
-0,0390732558582147
-0,0700277332710398
-0,0961189824393886
-0,11777803572928
-0,135492214841945
-0,149776036018823
-0,161143491837008
-0,170083374690749
-0,177038999015644
-0,182393285318373
-0,186459723646794
-0,189479274563648
-0,191622828927566
-0,192998467265081
-0,193662462503247
-0,19363277538103
-0,192903709557395
-0,191460422972088
-0,189292123746439
-0,18640299511797
-0,182820170707772
-0,178598391264555
-0,173821288250966
-0,168599531035051
-0,163066319648581
-0,157370886381814
-0,151670776085546
-0,146123703599821
-0,140879741187719
-0,136074479600324
-0,131823648917771
-0,128219498387211
-0,125329038217113
-0,123194060142444
-0,121832694567993
-0,121242143310964
-0,121402156613443
-0,1222788039991
-0,123828118277348
-0,125999263395077
-0,128736979114514
-0,131983175424862
-0,135677673130269
-0,139758200612759
-0,14415984872323
-0,148814247374933
-0,153648753681949
-0,158585931275493
-0,163543556584023
-0,168435316520468
-0,173172271985793
-0,177665063245823
-0,181826737436413
-0,185575995414943
-0,188840593531232
-0,191560601811934
-0,193691216786368
-0,195204854836508
-0,196092307539367
-0,19636281836849
-0,196043032636975
-0,195174870767563
-0,193812469537502
-0,192018418106635
-0,189859577853303
-0,187402811832832
-0,184710957897288
-0,1818393586888
-0,178833213937268
-0,175725950230294
-0,172538716975616
-0,169281022283337
-0,165952427161172
-0,162545128810787
-0,159047191208867
-0,155446129426405
-0,151732527284311
-0,147903367832246
-0,143964782413976
-0,139933974200122
-0,135840141632043
-0,131724310296894
-0,127638071471524
-0,12364131460959
-0,119799122312569
-0,116178063405266
-0,112842167535168
-0,109848889644377
-0,10724537308879
-0,105065296354739
-0,103326542454227
-0,102029866010815
-0,101158656092224
-0,100679809150304
-0,10054564266803
-0,100696702858233
-0,101065254975832
-0,101579197402856
-0,102166114152691
-0,102757176582856
-0,103290623854334
-0,103714591211731
-0,103989111959907
-0,104087188240596
-0,103994901575729
-0,103710610371406
-0,103243351935182
-0,102610625409455
-0,101835774697519
-0,100945213745059
-0,0999657388619092
-0,0989221543469275
-0,0978354004848598
-0,0967213205907711
-0,0955901409567355
-0,094446669980483
-0,0932911563887228
-0,0921206870994616
-0,0909309579852187
-0,0897182195887063
-0,088481187155271
-0,0872227110255249
-0,0859510285428725
-0,0846804596222994
-0,0834314610915983
-0,0822300149150554
-0,0811063869636035
-0,0800933505977966
-0,0792240179188351
-0,0785294569488161
-0,0780362923610779
-0,0777644893086808
-0,077725504601828
-0,0779209587285578
-0,0783419390918579
-0,0789689934560083
-0,0797728176752438
-0,0807155881894443
-0,0817528420859496
-0,0828357695801315
-0,083913758357678
-0,0849370178790719
-0,0858591146319458
-0,0866392652779822
-0,0872442613996182
-0,0876499339677214
-0,087842104078953
-0,0878170051934029
-0,0875811975637516
-0,0871510249130599
-0,0865516846807192
-0,0858159953388358
-0,0849829474788233
-0,0840961206274882
-0,0832020369439949
-0,0823485084691147
-0,0815830190401769
-0,0809511678479709
-0,0804951909547018
-0,0802525713209811
-0,0802547475694222
-0,0805259365368649
-0,0810820934645377
-0,0819300446404172
-0,08306683812173
-0,0844793664212562
-0,0861443184348681
-0,0880285146434267
-0,0900896686036494
-0,092277598813262
-0,0945358889387868
-0,0968039629111338
-0,0990195070447321
-0,101121137303882
-0,103051179490395
-0,104758406869287
-0,106200566460546
-0,107346524146908
-0,108177871037961
-0,108689859247519
-0,108891573161425
-0,108805290078486
-0,10846503839702
-0,107914418249526
-0,107203804173672
-0,106387097576908
-0,105518234317293
-0,104647676351158
-0,10381912378446
-0,103066673778709
-0,102412625937172
-0,10186609170235
-0,101422510879701
-0,101064115556464
-0,100761315065021
-0,100474910189594
-0,100158985462762
-0,0997642795870335
-0,0992417994654952
-0,0985464256199881
-0,0976402573004864
-0,0964954642925489
-0,0950964479830507
-0,0934411639899474
-0,0915415189493954
-0,0894228204282178
-0,0871223265264501
-0,084687005575748
-0,0821706717800558
-0,0796307056240466
-0,0771245952960834
-0,0747065452810544
-0,072424389985088
-0,0703170244840277
-0,0684125231930678
-0,0667270636017831
-0,0652647102732901
-0,064018048808289
-0,062969595389757
-0,062093849826468
-0,0613598131101087
-0,0607337580942783
-0,0601820265077004
-0,059673628391056
-0,0591824409602943
-0,0586888412151819
-0,058180657282105
-0,0576533833916179
-0,0571096675355713
-0,056558143840205
-0,0560117381274751
-0,0554856200923333
-0,0549950049566867
-0,0545530186458136
-0,0541688322388014
-0,0538462442073215
-0,0535828449715843
-0,0533698413750297
-0,053192553862784
-0,0530315323773611
-0,0528641745028329
-0,0526666772677265
-0,0524161174674462
-0,0520924383445272
-0,0516801251612843
-0,051169378815017
-0,050556643288202
-0,0498444055022611
-0,0490402594939445
-0,0481553039291902
-0,0472020154202123
-0,0461918025481136
-0,04513249038654
-0,0440260075155516
-0,0428665439231749
-0,041639418026476
-0,0403208360850182
-0,0388786517233852
-0,0372741434676108
-0,0354647320650746
-0,0334074657058505
-0,0310630189906672
-0,0283998887119482
-0,0253984328031299
-0,0220543924498474
-0,0183815630173694
-0,0144133357638152
-0,0102029151589778
-0,00582211921884338
-0,00135878396164814
0,00308709205816157
0,00740822129257638
0,0114955896292799
0,015244317613701
0,0185594015978826
0,021360922044075
0,0235883468082528
0,0252036288118356
0,0261928937118423
0,0265666254612145
0,0263583759488543
0,025622138764718
0,0244286264686607
0,0228607670414573
0,0210087820475051
0,0189652230155084
0,0168203231742532
0,0146579718315231
0,0125525439007146
0,0105667252876359
0,00875037538977113
0,00714037073353383
0,00576128823898272
0,00462672082412136
0,00374097796505838
0,00310091256905929
0,00269763329389151
0,00251790533227769
0,00254510721468644
0,00275968864283307
0,0031391558776242
0,00365768740584037
0,0042855448477609
0,00498848510799426
0,00572739473164638
0,00645835412317333
0,00713329865111215
0,0077013795292974
0,0081110461783124
0,00831278196571643
0,00826233627892764
0,00792421754165135
0,00727515284840657
0,00630718753955765
0,0050300968679246
0,00347281361957849
0,00168363851903886
-0,000270910132091166
-0,00230864235065375
-0,0043355541232918
-0,00625079542470723
-0,00795244139002192
-0,00934367542643092
-0,0103389391760039
-0,0108695862023875
-0,0108885967088092
-0,0103739687205196
-0,00933049289722332
-0,00778973630693981
-0,00580819564003742
-0,00346372130763971
-0,000850449024838291
0,00192740649999654
0,00476245013417946
0,00755119513840407
0,0102008232750166
0,0126351211678091
0,0147991607491774
0,0166623883298937
0,0182199094490976
0,0194918952657205
0,0205211796436355
0,0213692528054531
0,0221109766913349
0,0228284397137445
0,0236044274551192
0,0245160068857271
0,0256287037707161
0,0269916982102799
0,0286343766199101
0,0305644673622393
0,0327678608722444
0,0352100836818652
0,0378392696898951
0,0405903610198925
0,0433901832566048
0,0461629819750513
0,0488359831058693
0,0513445498508956
0,0536365519236398
0,0556756345789414
0,0574431689288134
0,0589387734111303
0,0601794102107395
0,0611971708648312
0,0620359636952727
0,0627473948289705
0,0633861886940164
0,0640055195877979
0,0646526219622012
0,0653650146481128
0,0661676166815451
0,0670709549277638
0,0680705729008969
0,069147653570238
0,0702707741540513
0,0713986253199713
0,0724834572144115
0,0734749653173488
0,0743243035527028
0,0749879116252963
0,0754308675179108
0,0756295218734865
0,0755732343349572
0,0752651073697562
0,0747216943452041
0,0739717390854673
0,073054077514502
0,0720148926643772
0,0709045578822204
0,069774326551358
0,0686731287539496
0,0676447165241968
0,0667253617834184
0,0659422582694149
0,0653127155206061
0,0648441646383988
0,0645349279174131
0,0643756429809643
0,0643511817497309
0,0644428692541246
0,0646307895759591
0,0648959671260705
0,0652222305288433
0,0655976015979817
0,066015099894621
0,066472909844395
0,0669739173097631
0,0675246806733847
0,0681339528406435
0,0688109107614489
0,0695632746932252
0,0703955084097649
0,0713072832178327
0,0722923638543375
0,073338035360405
0,0744251403477694
0,0755287401369173
0,0766193559639799
0,0776646929385655
0,0786317043964812
0,0794888217434118
0,0802081577458346
0,0807674910615848
0,081151856687748
0,0813545995570412
0,0813777938890345
0,081231985220891
0,0809352705181287
0,0805117892943146
0,0799897501899492
0,0793991583796681
0,078769435887744
0,0781271369400466
0,0774939529323785
0,0768851770286547
0,0763087588971866
0,0757650290713108
0,0752471143029358
0,0747420051256791
0,0742321799326573
0,0736976411509944
0,0731181828653861
0,0724756886411032
0,0717562551551989
0,0709519518292855
0,0700620576942706
0,0690936615143601
0,06806156585074
0,0669874955257783
0,0658986707048219
0,0648258593995147
0,0638010689775289
0,0628550674547755
0,0620149403574552
0,0613018866250977
0,0607294376514661
0,0603022489385164
0,0600155669592749
0,0598554187435852
0,0597995130683224
0,0598187848420425
0,0598794630380653
0,0599455014494292
0,0599811838413502
0,0599537027824069
0,0598355152878258
0,0596062977996582
0,0592543560981912
0,0587773895755705
0,0581825601764126
0,0574858700348784
0,0567109041207341
0,0558870409626631
0,055047272260703
0,0542257982225425
0,0534555780912928
0,0527660140063809
0,0521809315707167
0,0517169938873665
0,0513826497687606
0,0511776744340275
0,0510933157201282
0,051113014206513
0,0512136250797046
0,0513670359424116
0,0515420504466492
0,0517063940472725
0,0518286959848308
0,0518803105190633
0,0518368593177261
0,0516794039265823
0,0513951899718564
0,0509779404105102
0,0504277108335849
0,0497503527058584
0,048956657986654
0,0480612787835152
0,0470815271454107
0,0460361621795823
0,0449442644659397
0,0438242821722393
0,0426933108724849
0,0415666419871387
0,0404575854913641
0,039377543736101
0,0383362875545218
0,0373423656014998
0,0364035650298628
0,0355273373570978
0,0347211082298421
0,0339924034215461
0,0333487446435837
0,0327972957694851
0,0323442703624854
0,0319941421400823
0,0317487281790054
0,0316062373771434
0,0315603914545208
0,0315997306889178
0,0317072106202824
0,0318601789946361
0,0320307951910724
0,032186919172222
0,0322934563606286
0,0323141021829489
0,0322133890786307
0,0319589033887623
0,0315235132190138
0,0308874340192345
0,0300399582356665
0,0289806897989372
0,0277201530455915
0,0262796871935183
0,0246905888596207
0,0229925224407804
0,021231276910407
0,0194560028762529
0,017716110769786
0,0160580455957461
0,0145221723549334
0,013140006947207
0,0119320093809716
0,0109061202752053
0,0100571703739887
0,00936722974877241
0,0088068933995856
0,00833742852406822
0,00791364153156907
0,00748726544349629
0,00701062536295707
0,00644031494898108
0,00574061245114727
0,00488638149006527
0,00386523826143662
0,00267882045871496
0,00134305983265915
-0,000112565329604217
-0,0016467452275053
-0,00320889633363986
-0,0047423748405085
-0,00618811098706266
-0,00748840020071801
-0,00859057825428203
-0,00945032001044387
-0,0100343335901507
-0,0103222712088588
-0,0103077403480478
-0,00999836921917709
-0,00941495297369964
-0,00858977595618664
-0,00756426510805228
-0,00638617574215944
-0,00510653988748976
-0,00377661726344398
-0,00244507921712488
-0,00115562789335259
5,4790900770288E-05
0,00115707826772753
0,00213033593896512
0,00296150712204605
0,0036443889849789
0,00417815314773609
0,0045655494578858
0,00481099124654523
0,00491872543770375
0,00489127806973588
0,00472833628477979
0,00442618421950491
0,00397775635964684
0,00337331235938401
0,00260167719837404
0,00165193497183465
0,000515418286091214
-0,000812197789701489
-0,00232890516358872
-0,00402468261679912
-0,00588031445889397
-0,00786686088736478
-0,00994588368388188
-0,0120704714448742
-0,0141870435742307
-0,0162378469398666
-0,0181639985790415
-0,0199088770537125
-0,0214216281949196
-0,0226605312001218
-0,0235959702831012
-0,0242127757799695
-0,0245117358130716
-0,02451013288419
-0,0242412254856894
-0,0237526683322547
-0,0231039408626397
-0,0223629266715231
-0,0216018510979813
-0,0208928354319989
-0,0203033600825165
-0,0198919428133549
-0,0197043303575746
-0,0197704725607781
-0,0201024993185254
-0,0206938551335418
-0,0215196685110008
-0,0225383489474542
-0,0236943189297759
-0,0249217081747674
-0,0261487682053843
-0,027302712351834
-0,0283146534598763
-0,02912430164957
-0,0296840983839914
-0,0299625002494517
-0,0299461837458802
-0,0296410171331941
-0,0290717316773396
-0,0282803163013639
-0,0273232500218579
-0,0262677689439171
-0,0251874329051203
-0,0241573059112938
-0,023249090592373
-0,022526557979538
-0,0220415898261013
-0,0218311032656343
-0,0219150603977732
-0,022295683562052
-0,0229579068763431
-0,023871003023831
-0,0249912383286053
-0,0262653354600796
-0,0276344672675336
-0,0290384714616132
-0,0304199665122922
-0,0317280646837701
-0,0329214169864406
-0,0339703835924358
-0,0348581969307006
-0,0355810670948418
-0,0361472636299891
-0,036575287340452
-0,0368913142045827
-0,0371261454732913
-0,0373119297576412
-0,0374789323075628
-0,0376526135411908
-0,0378512449514526
-0,0380842391366507
-0,0383513066668878
-0,0386424814676126
-0,0389389844877632
-0,0392148286195956
-0,0394390114791296
-0,0395781010824817
-0,0395989955130624
-0,0394716326975896
-0,0391714399844973
-0,0386813434404624
-0,0379932003482294
-0,0371085710181649
-0,0360388028531614
-0,0348044555972837
-0,0334341471799376
-0,0319629404869391
-0,0304304198269496
-0,0288786200420243
-0,0273499707596592
-0,0258854041106718
-0,0245227484001322
-0,0232954957580663
-0,0222319922572581
-0,0213550582839089
-0,020682008795731
-0,0202250108354306
-0,0199916918682184
-0,0199858988521733
-0,0202085050958391
-0,0206581694838053
-0,0213319692383625
-0,022225850874246
-0,0233348717148192
-0,0246532332526267
-0,0261741348084795
-0,0278894986107858
-0,0297896334243229
-0,0318629116935357
-0,0340955341622283
-0,0364714463549272
-0,0389724541120505
-0,041578562459535
-0,0442685357000681
-0,0470206494935167
-0,04981358060308
-0,0526273595200243
-0,0554442976247919
-0,0582497954266262
-0,061032942684289
-0,063786834773671
-0,0665085517022238
-0,069198774950067
-0,071861050471752
-0,0745007408044197
-0,0771237421703403
-0,0797350705661362
-0,0823374412199945
-0,0849299762081031
-0,0875071738296559
-0,0900582600520893
-0,0925670173138623
-0,0950121507892838
-0,0973682093253792
-0,0996070309210389
-0,101699634741151
-0,103618437262766
-0,10533963331649
-0,106845557030897
-0,108126825860789
-0,109184074690197
-0,110029106994803
-0,110685325364866
-0,11118735217846
-0,111579809480839
-0,111915290827292
-0,112251622066602
-0,112648567457602
-0,113164187266359
-0,113851088582016
-0,11475282927262
-0,115900733716758
-0,117311357745128
-0,1189848003212
-0,12090400352689
-0,123035114578585
-0,125328908976775
-0,127723198261283
-0,13014607512985
-0,132519788478567
-0,134764995937364
-0,136805115332264
-0,138570491109342
-0,140002107550169
-0,141054616090468
-0,141698496287052
-0,141921234670101
-0,141727477515998
-0,14113818680166
-0,140188897405224
-0,138927232769058
-0,137409881322552
-0,135699263919569
-0,133860131756239
-0,131956324744304
-0,130047893634216
-0,12818874830349
-0,126424943512418
-0,12479365677768
-0,123322855810534
-0,122031599920445
-0,120930875128158
-0,120024829658905
-0,119312257099738
-0,11878816953605
-0,118445311918073
-0,118275489969287
-0,118270614471301
-0,118423401295944
-0,118727705421789
-0,119178504656882
-0,119771581536471
-0,120502977253634
-0,121368307635569
-0,122362037337649
-0,123476804749752
-0,12470287771282
-0,126027800916133
-0,127436272221388
-0,128910259766776
-0,130429347298506
-0,131971274036135
-0,133512619468414
-0,135029573940204
-0,136498733189868
-0,137897858848662
-0,139206556271721
-0,140406834451251
-0,141483528269753
-0,142424579003219
-0,143221182903168
-0,143867828348435
-0,144362248356889
-0,144705316797251
-0,144900913535938
-0,14495577684294
-0,14487935188438
-0,144683633632789
-0,144382992793684
-0,143993965938791
-0,143534987309163
-0,143026040537786
-0,142488214070135
-0,141943153928374
-0,141412420626432
-0,14091677193523
-0,140475407913582
-0,140105227082005
-0,139820150937519
-0,139630576592988
-0,139543013193674
-0,139559946716523
-0,139679960372248
-0,139898115523933
-0,140206572993231
-0,140595409448693
-0,141053561218099
-0,141569811130493
-0,142133725301173
-0,142736447837171
-0,143371272908567
-0,144033935153895
-0,144722589274233
-0,145437485237352
-0,146180383153881
-0,146953787469657
-0,147760109311929
-0,148600884789599
-0,149476182560122
-0,150384324183106
-0,151322015319449
-0,152284945964817
-0,153268866758229
-0,154271090395189
-0,155292308077084
-0,156338556983936
-0,157423132284843
-0,158568211832409
-0,159805957759881
-0,161178879068596
-0,162739283218407
-0,164547710285048
-0,166670325713905
-0,169175340233625
-0,172128619594225
-0,17558873326312
-0,179601760856615
-0,184196219720713
-0,18937849051629
-0,195129096332896
-0,201400134495102
-0,208114072067732
-0,215164002736957
-0,222415333941341
-0,229708740733108
-0,236864099934484
-0,243685017833639
-0,249963498637561
-0,255484278277975
-0,260028374438858
-0,263375479733991
-0,265304946888003
-0,265595273737432
-0,264022178759848
-0,260355548083813
-0,254355714129924
-0,245769675216253
-0,234327967320327
-0,21974293939184
-0,201709152782656
-0,17990651993656
-0,154006620760747
-0,12368239709282
-0,0886211429345372
-0,0485404023244218
-0,0032060832924121
0,0475481777487288
0,103801585440532
0,165528013071132
0,232580456568697
0,304679420495738
0,381406370695287
0,462203116244885
0,546377626884184
0,633116375333982
0,721502847825826
0,810541425235727
0,899185437409054
0,986367868384885
1,07103296946352
1,15216694178699
1,22882589231236
1,30015944742477
1,36542871641231
1,42401771089144
1,47543781498835
1,51932542639506
1,55543340808391
1,58361746159527
1,60381891560607
1,61604568468912
1,62035326899602
1,61682762411584
1,60557153264655
1,58669576949201
1,5603158981458
1,52655500232399
1,48555209036011
1,4374753567879
1,38253899389938
1,32102185888284
1,25328605409468
1,17979339272297
1,10111780939831
1,01795203087127
0,931107226820832
0,841504883760259
0,750160743980964
0,658161278127065
0,566633763039188
0,476711566570373
0,389496654375016
0,306021596261949
0,227213439781066
0,153861728898081
0,0865926831578413
0,0258511390608649
-0,0281086761055667
-0,0752230741556952
-0,11560970901313
-0,14955003253411
-0,177464723276333
-0,199883838666186
-0,217413730753379
-0,230702896523972
-0,240408900705914
-0,247168320535644
-0,25157133876357
-0,254142184249343
-0,255326126808785
-0,255483216462347
-0,254888458783988
-0,253737676179396
-0,25215795149204
-0,250221308430464
-0,247960165263947
-0,245383105643692
-0,242489633994844
-0,239282804416593
-0,235778905764496
-0,232013721619015
-0,228045230309381
-0,223952936690493
-0,219834307172736
-0,215798991997429
-0,211961650527277
-0,208434241364474
-0,205318602241659
-0,202700035146598
-0,200642446053011
-0,199185386071227
-0,198343123691281
-0,198105667835782
-0,198441477979528
-0,199301456152514
-0,200623726502219
-0,202338675815483
-0,204373751716187
-0,206657587610479
-0,209123133912617
-0,211709609796379
-0,214363233303454
-0,217036824911428
-0,219688497014876
-0,222279728441687
-0,224773172131736
-0,227130552583184
-0,229310979095481
-0,231269936468731
-0,232959125074011
-0,234327217587224
-0,235321491739031
-0,235890198319798
-0,235985441445814
-0,235566291326642
-0,234601823291346
-0,233073782151673
-0,230978606460063
-0,22832860813263
-0,225152182459319
-0,221493013096364
-0,217408327184683
-0,212966338401158
-0,208243082871464
-0,20331889852762
-0,198274819315847
-0,193189150589123
-0,188134462799045
-0,183175191103977
-0,178365964512855
-0,173750716504217
-0,169362557136454
-0,165224321380819
-0,161349655896198
-0,157744471119834
-0,154408569978557
-0,15133726909482
-0,148522851543155
-0,145955728462885
-0,143625235381477
-0,141520042199648
-0,13962820752088
-0,137936952746765
-0,136432264530493
-0,135098452456491
-0,133917790664337
-0,132870357785027
-0,131934160973086
-0,131085590464692
-0,130300205601094
-0,12955380676547
-0,12882370551116
-0,128090072087451
-0,127337219382777
-0,126554677467249
-0,125737924274107
-0,124888664594952
-0,124014589058663
-0,123128593265889
-0,122247489955605
-0,121390298721241
-0,120576243145361
-0,119822619567919
-0,119142721483458
-0,118544006496588
-0,118026678264896
-0,117582825016753
-0,117196211730124
-0,116842768848741
-0,116491761505771
-0,116107564956412
-0,115651919658853
-0,115086497940687
-0,114375587199925
-0,113488684425232
-0,112402804324916
-0,111104327575614
-0,109590254280749
-0,107868776928723
-0,105959142384004
-0,103890828605459
-0,101702113916956
-0,0994381601665297
-0,0971487624941693
-0,0948859353381425
-0,0927015059024024
-0,0906448731650288
-0,0887610646723441
-0,087089187898067
-0,0856613318078494
-0,084501931707317
-0,0836275706705196
-0,0830471575547639
-0,082762397675905
-0,0827684593749237
-0,0830547384836461
-0,0836056323443913
-0,084401253699756
-0,0854180397183668
-0,0866292393492885
-0,0880052896517483
-0,0895141154155982
-0,0911214035719272
-0,0927909126471413
-0,094484876984324
-0,0961645557594332
-0,0977909592758888
-0,0993257616197817
-0,100732382356911
-0,101977193518899
-0,103030784821459
-0,103869202487372
-0,104475067464745
-0,104838478307222
-0,104957613002098
-0,104838961732205
-0,104497147488258
-0,103954321168386
-0,103239149668136
-0,102385446320982
-0,101430520260637
-0,100413342188973
-0,0993726370201912
-0,0983450178150467
-0,097363270314764
-0,0964548838613619
-0,0956409042356993
-0,0949351588626829
-0,0943438775324643
-0,0938657046834213
-0,0934920747892688
-0,0932079023871203
-0,0929925241948457
-0,0928208231595621
-0,0926644631764154
-0,0924931678516058
-0,0922759857426214
-0,091982496422316
-0,0915839246091574
-0,0910541418049725
-0,0903705448841478
-0,0895148079448315
-0,0884735068649878
-0,0872386156906545
-0,0858078707036955
-0,0841849930500868
-0,0823797554000252
-0,0804078739301879
-0,0782907051516737
-0,0760547290688293
-0,0737308062450166
-0,0713532068491494
-0,0689584239066903
-0,0665837998938889
-0,0642660136797862
-0,0620394919835654
-0,0599348238014289
-0,057977265975623
-0,0561854315630301
-0,0545702490918167
-0,0531342696956007
-0,0518713810347633
-0,0507669629284676
-0,0497984915264848
-0,0489365689155316
-0,0481463258247671
-0,0473891190989867
-0,0466244251723966
-0,0458118178109618
-0,0449129139660594
-0,0438931762547924
-0,0427234737730152
-0,0413813235087295
-0,0398517605538276
-0,0381278142487487
-0,0362105965339531
-0,0341090355925027
-0,0318393097720299
-0,0294240520470136
-0,026891402639115
-0,0242739865875732
-0,021607884522285
-0,0189316500314533
-0,0162854077241056
-0,0137100449103084
-0,0112464892908199
-0,00893504773891476
-0,00681476931582226
-0,00492279062137183
-0,00329362420200065
-0,00195836090558892
-0,000943773730797819
-0,000271332090974057
4,38409717540232E-05
-5,98696283510465E-06
-0,000420187171235294
-0,00118896165361881
-0,00229279124427517
-0,00370222937889533
-0,00537811639300865
-0,00727226523067949
-0,00932863760192027
-0,011484992454554
-0,0136749493433436
-0,0158303714903746
-0,0178839406732845
-0,0197717719499516
-0,0214359033317219
-0,0228264956678507
-0,0239035919032493
-0,0246383119288527
-0,0250133977106425
-0,0250230703669136
-0,0246722125971617
-0,0239749420451566
-0,022952689342916
-0,0216319344060353
-0,020041782474549
-0,0182115746756228
-0,0161687251137623
-0,0139369575772582
-0,0115350812728132
-0,00897639919046725
-0,00626878857642641
-0,00341543509482596
-0,000416145546571946
0,00273088661287481
0,00602702882613107
0,00947106198973306
0,0130571396464091
0,0167730478321948
0,0205989353189624
0,0245066450636063
0,0284597274861645
0,0324141590331095
0,036319730321254
0,0401220120469516
0,0437647586071798
0,0471925730665668
0,0503536357250697
0,0532022937137168
0,0557013209690485
0,057823685328019
0,059553699662337
0,0608874833229395
0,0618327142015182
0,0624077057769234
0,0626398929956791
0,0625638517400441
0,0622190058050872
0,0616471908234758
0,0608902457532052
0,0599877900701981
0,0589753205395511
0,0578827282080777
0,0567332976149303
0,0555432098777317
0,0543215330611512
0,0530706502661818
0,0517870507036085
0,050462393168485
0,0490847453042648
0,0476399051875246
0,0461127226561506
0,0444883541764143
0,0427534042872286
0,0408969260911495
0,038911270347808
0,0367927855713616
0,0345423788231801
0,0321659483480374
0,0296746952500505
0,0270853133741325
0,024420046344614
0,0217065905889255
0,0189778154111877
0,0162712678782635
0,0136284329630217
0,011093728786036
0,00871323283367103
0,00653315661911552
0,0045981115262489
0,00294923491117292
0,00162227003160796
0,000645712914171389
3,91510875726245E-05
-0,00018807897082916
-3,77981311967244E-05
0,000476642162597931
0,00133058528873796
0,00248891938336273
0,00390753270663799
0,0055353087441229
0,00731655134607587
0,00919369290810336
0,0111101116861227
0,0130128706771622
0,0148551918458602
0,0165984961702209
0,0182138710789356
0,0196828699070493
0,0209975995543047
0,0221601081157368
0,0231811391385873
0,0240783684544494
0,0248742788901055
0,0255938541229421
0,0262622831769595
0,0269028607954002
0,0275352467355554
0,0281742111573446
0,0288289469606965
0,0295029775550272
0,0301946348670203
0,0308980323033579
0,0316044153241162
0,0323037418947078
0,0329863289052611
0,033644399741536
0,0342733823373857
0,034872834455428
0,0354469108649675
0,036004331620331
0,0365578576534122
0,037123324937986
0,0377183275650444
0,0383606699092512
0,0390667262399372
0,0398498515776057
0,0407189802489632
0,0416775297984798
0,0427226997636527
0,0438452203250295
0,0450295682791436
0,0462546306053839
0,0474947621887119
0,0487211566371241
0,0499034294610416
0,0510113020744533
0,0520162733523767
0,0528931720078762
0,0536214966380138
0,0541864690106734
0,0545797481420094
0,0547997759056828
0,0548517475822839
0,0547472215292467
0,0545034000231997
0,05414212789683
0,053688666660818
0,053170309698955
0,0526149091355901
0,05204938760174
0,0514983085890764
0,0509825775943413
0,050518342675944
0,050116157063464
0,0497804577092154
0,0495094016267211
0,0492950863331758
0,0491241615845145
0,0489788173534896
0,0488381085081559
0,048679551316738
0,0484809026117056
0,0482220113751456
0,0478866169690037
0,0474639603875905
0,0469500765985096
0,046348648317325
0,045671324771862
0,0449374423244227
0,0441731255124431
0,0434097942799513
0,0426821523095197
0,0420257783438877
0,041474482825672
0,0410576221071761
0,0407975784082996
0,0407076133307743
0,0407902849604667
0,0410365839133319
0,0414258941184774
0,0419268231605387
0,0424988793196453
0,0430949035318456
0,0436641002700577
0,0441554574391046
0,0445213068405977
0,0447207573865144
0,0447227352811234
0,0445083892941672
0,0440726635380975
0,0434249015962756
0,04258841955202
0,0415990654669983
0,0405028625231089
0,0393529056760831
0,038205741089428
0,0371174987937453
0,0361400683688857
0,0353176033560523
0,0346836128792184
0,0342588509691067
0,0340501494645223
0,0340502646125412
0,0342387271483127
0,0345836074116516
0,0350440375885051
0,0355732780908966
0,0361220788010672
0,0366420710788343
0,0370889337526584
0,0374251046266339
0,0376218552485288
0,0376606062802283
0,0375334281908047
0,0372427409865225
0,0368002912305303
0,036225539163585
0,0355436289071284
0,0347831375766475
0,0339738033915584
0,0331444191006831
0,0323210474009513
0,031525673133502
0,0307753575186996
0,0300819076485122
0,0294520251021409
0,0288878555263671
0,0283878300891007
0,0279476723235227
0,0275614409784399
0,0272224905884391
0,0269242545043077
0,0266607869917709
0,0264270377093228
0,026218869076238
0,026032860523533
0,0258659696425745
0,0257151361250306
0,0255769184861817
0,0254472457470351
0,0253213476532091
0,0251938999803462
0,0250593893458462
0,0249126685359391
0,0247496427298
0,0245680028286259
0,0243679073850476
0,0241525113978367
0,0239282491721015
0,0237047989861838
0,02349468753081
0,0233125290409808
0,0231739339648752
0,0230941606901965
0,0230866171607284
0,0231613434467451
0,0233236186018025
0,0235728337415016
0,0239017577703646
0,0242962936064029
0,0247357833660131
0,0251938741867783
0,0256399064072084
0,0260407372453196
0,0263628705379558
0,0265747305568681
0,0266488987094659
0,0265641281116439
0,02630696330358
0,0258728200621514
0,0252664211978687
0,0245015351379525
0,0236000206922451
0,0225902389510096
0,021504946830989
0,0203788317571327
0,0192458794653239
0,0181367840155151
0,0170766092782901
0,0160828941665519
0,0151643610148335
0,0143203403119643
0,0135409690965853
0,0128081592371342
0,0120972703407322
0,0113793651372087
0,0106238773314195
0,00980148695061586
0,00888697892895482
0,00786185855655355
0,00671651278586826
0,00545173800410442
0,00407950046551154
0,00262285165853095
0,00111498325741539
-0,000402529610821219
-0,00188218713595841
-0,00327356262160096
-0,00452663454111984
-0,00559522092885812
-0,00644027365190589
-0,00703279704442865
-0,00735617921471593
-0,00740776349961124
-0,00719953912766603
-0,00675789059136494
-0,00612241017493343
-0,00534384288083208
-0,00448129312466459
-0,00359887361371186
-0,00276201527271855
-0,002033680084809
-0,0014707246960361
-0,00112065117946986
-0,00101895324912322
-0,00118722362280022
-0,00163213416715631
-0,00234533899956965
-0,00330428632353222
-0,00447386223020456
-0,00580873366295189
-0,00725621227477769
-0,00875942945109902
-0,0102605974682039
-0,0117041337063131
-0,0130394436050647
-0,0142231919685136
-0,0152209384236511
-0,0160080673350877
-0,0165700008116051
-0,0169017406393627
-0,0170068363624261
-0,016895918002571
-0,0165849596942585
-0,0160934526764266
-0,01544266174129
-0,0146541191337485
-0,0137484760471562
-0,0127447876450367
-0,0116602572431724
-0,0105104137400945
-0,00930964865670521
-0,008071999844095
-0,00681204197859809
-0,00554573209718123
-0,00429106295214363
-0,00306839761784488
-0,00190039365222781
-0,000811470946090418
0,000173170303488058
0,00102892146708596
0,00173341775161308
0,00226832135413781
0,00262105966738399
0,00278633332611263
0,0027672180270439
0,00257571154365659
0,00223262121778059
0,00176674377374606
0,00121335358320607
0,000612081539683971
4,32820688325582E-06
-0,000569594216719622
-0,00107336158833895
-0,00147733447102612
-0,0017608138841215
-0,00191364728082228
-0,00193702510174138
-0,00184337381837891
-0,00165532775718074
-0,00140384247539615
-0,00112558977447014
-0,000859841393459798
-0,00064509864003081
-0,000515753648151243
-0,000499071493986485
-0,000612760124845969
-0,000863348424972099
-0,00124552546867999
-0,00174251175730477
-0,0023274431975296
-0,00296565871673207
-0,00361770089546586
-0,00424277327543533
-0,00480235426042275
-0,00526365002804967
-0,0056025794737364
-0,00580602236575219
-0,00587312437696944
-0,00581553418012209
-0,00565654112474897
-0,00542917887913989
-0,00517345218240597
-0,00493292216407575
-0,00475094356617332
-0,00466687926383005
-0,00471262087131602
-0,00490971852046167
-0,00526737037412772
-0,00578144783693589
-0,00643464233329374
-0,00719772209392252
-0,00803179125525963
-0,00889135730518421
-0,00972794413049547
-0,0104939425444531
-0,0111463721436913
-0,0116502389063152
-0,0119812109133873
-0,01212739627945
-0,0120900869948141
-0,0118834227395228
-0,0115330215550432
-0,0110737114236543
-0,0105465707187242
-0,00999553983746596
-0,00946389684117794
-0,00899089431186524
-0,00860883324853235
-0,00834080509321245
-0,00819926944332775
-0,0081855588193755
-0,00829031998564663
-0,00849482121661567
-0,00877298345261062
-0,00909393655577222
-0,00942486431405755
-0,00973388608095919
-0,00999272956474878
-0,010178976877279
-0,010277711258598
-0,0102824502333441
-0,0101953166444981
-0,0100264659437205
-0,00979285043164829
-0,00951645347418091
-0,0092221650988721
-0,00893549200394528
-0,00868029896809342
-0,00847676554096453
-0,00833971377824875
-0,00827742316320715
-0,00829100178201969
-0,00837433309277014
-0,00851456971822607
-0,00869310378484363
-0,00888691073540739
-0,00907014241829108
-0,00921583664589729
-0,00929761396965571
-0,00929124679657339
-0,00917600879145559
-0,00893574081694969
-0,00855960018522862
-0,008042489537573
-0,00738518736683397
-0,00659422190794506
-0,00568154241694459
-0,00466404633950564
-0,00356301796163344
-0,00240352505656755
-0,00121380671158425
-2,46700449333866E-05
0,00113110165634271
0,00221933969147139
0,00320509862233912
0,00405330535838373
0,0047294689123398
0,00520046344568789
0,00543538518459158
0,00540646886882918
0,00509003352459689
0,00446741261352832
0,00352581200066572
0,00225903237229557
0,000667991976181542
-0,00123900866363665
-0,00344632612101459
-0,0059313457093991
-0,00866519146880368
-0,0116137561771918
-0,0147390086057209
-0,0180005128857907
-0,0213570768262143
-0,0247684339453321
-0,0281968591185292
-0,0316086206065104
-0,0349751816513036
-0,0382740819695211
-0,0414894518409021
-0,04461213721286
-0,0476394410873215
-0,0505745122086421
-0,053425434598332
-0,0562040890859486
-0,0589248693694712
-0,0616033397106034
-0,0642549191364579
-0,0668936686019302
-0,0695312441835294
-0,072176062547349
-0,0748327065048129
-0,077501580210297
-0,0801788071322553
-0,0828563506625769
-0,0855223279586301
-0,0881614826471382
-0,0907557811899895
-0,0932851002538623
-0,0957279773119208
-0,0980624026167722
-0,10026663624681
-0,102320038002947
-0,104203899510351
-0,105902266581069
-0,107402735678986
-0,108697201757499
-0,109782526869895
-0,110661091096592
-0,111341181098018
-0,111837168535831
-0,112169432047279
-0,112363983388278
-0,112451771119391
-0,112467653543844
-0,112449055546363
-0,112434349853192
-0,112461029919233
-0,112563766598915
-0,112772461369374
-0,113110422694902
-0,113592797085313
-0,114225381155637
-0,115003924992333
-0,115914010795158
-0,116931555519132
-0,118023944374578
-0,11915175661331
-0,120270999616705
-0,121335725633983
-0,122300871241161
-0,1231251358689
-0,123773704980005
-0,124220627097009
-0,124450672098165
-0,124460530098197
-0,124259253660619
-0,123867897925222
-0,123318369610317
-0,122651552419142
-0,121914828734533
-0,121159161509568
-0,120435932485961
-0,119793750704503
-0,119275447349653
-0,118915459121112
-0,118737773703244
-0,118754569795131
-0,11896563384756
-0,119358580119726
-0,119909844198165
-0,120586367073732
-0,121347841183387
-0,122149354769278
-0,122944248811784
-0,123686992948528
-0,124335893179226
-0,12485546377382
-0,125218326523949
-0,125406539419249
-0,125412300614156
-0,125238018501623
-0,124895781387362
-0,124406297460531
-0,123797405090405
-0,123102273259097
-0,122357421471082
-0,121600687926311
-0,120869265246362
-0,120197906232678
-0,119617380335607
-0,119153237121294
-0,118824908458169
-0,118645158578997
-0,118619872238631
-0,118748156979489
-0,119022726343662
-0,119430526488491
-0,119953568126773
-0,120569927748697
-0,121254885072928
-0,121982166158253
-0,122725262158889
-0,123458791510476
-0,124159868037445
-0,124809429433574
-0,125393470795999
-0,125904117979455
-0,126340467491269
-0,126709115615156
-0,127024301543178
-0,127307599167258
-0,127587110868517
-0,127896144238344
-0,128271388298604
-0,128750647382789
-0,129370235438617
-0,130162177211752
-0,131151401232847
-0,132353138196513
-0,133770753041247
-0,135394236326114
-0,137199558185962
-0,139149045533241
-0,141192881460613
-0,143271748002997
-0,145320544447372
-0,147273019634236
-0,149067065706171
-0,150650340608577
-0,151985825200448
-0,153056885157318
-0,153871403320587
-0,15446457804035
-0,154900047840211
-0,155269100046322
-0,155687845407552
-0,156292384131477
-0,157232140748185
-0,158661694018473
-0,160731561216934
-0,163578501675714
-0,167315971942207
-0,172025386420377
-0,177748808336028
-0,184483615697896
-0,19217955929701
-0,200738462552002
-0,210016617876386
-0,219829725863369
-0,229960018651512
-0,240165024596687
-0,250187284396627
-0,259764233294184
-0,268637430748031
-0,276560353923919
-0,283304075270799
-0,28866031203522
-0,292441556095913
-0,29447825006131
-0,29461325038859
-0,292694087969403
-0,288563778126505
-0,28205112326085
-0,272961573541525
-0,261069749834922
-0,246114680466107
-0,227798658541438
-0,205790396035054
-0,179732848747481
-0,149255733097289
-0,113992377320359
-0,0736001749916979
-0,027783568004303
0,0236817920938413
0,0809252461491905
0,143959318628208
0,212661489893801
0,286760987138809
0,36583176395349
0,449292473828658
0,536413805594115
0,62633306989998
0,71807544063588
0,810580800369235
0,902734749930596
0,993402050263376
1,08146059385405
1,16583396865737
1,24552078423615
1,31961917145895
1,38734522645239
1,44804461976972
1,50119709847062
1,54641413255365
1,58343045663935
1,61209069312036
1,6323325790921
1,64416852894267
1,64766733020447
1,64293768655345
1,63011509528938
1,60935319574597
1,58082027870822
1,54470114217414
1,50120395779261
1,45057131888175
1,39309421682996
1,32912737421348
1,25910417768384
1,18354941830332
1,10308816567739
1,01844936634169
0,930463145541468
0,840051273606793
0,748210794431632
0,655991360507509
0,56446733203154
0,474706135123264
0,387734700765747
0,304505995649379
0,225867693796207
0,152534921349211
0,0850687464182807
0,0238617030387857
-0,0308688356974373
-0,0790791473930066
-0,120889763836261
-0,15656894806618
-0,186510245908199
-0,211205654478244
-0,231216169593073
-0,247141559091977
-0,259591158772877
-0,269157311746072
-0,276392789902509
-0,281793174941652
-0,28578476797997
-0,288718175382929
-0,290867317473888
-0,292433255921061
-0,293551958813959
-0,294304936031895
-0,294731589250334
-0,294842130019479
-0,294630016848579
-0,294083032447449
-0,293192344639786
-0,291959145478389
-0,290398718769594
-0,288542024170956
-0,286435087324587
-0,284136636107129
-0,281714514907551
-0,279241439727747
-0,276790630660569
-0,274431783718607
-0,272227733607222
-0,27023202776594
-0,268487495455507
-0,26702576846143
-0,265867604658347
-0,265023791354055
-0,264496367138283
-0,264279899901809
-0,264362591692071
-0,26472704155026
-0,265350576442777
-0,266205147268566
-0,267256870804882
-0,268465369423999
-0,269783110227295
-0,271154968326466
-0,272518232895349
-0,273803239976752
-0,274934756587033
-0,275834162787769
-0,276422390176248
-0,276623485903105
-0,27636859012542
-0,275600050153713
-0,274275353284299
-0,272370547064148
-0,269882832390465
-0,266832060685099
-0,263260937882478
-0,259233829388164
-0,254834163947114
-0,250160541946313
-0,245321756043289
-0,240431020780658
-0,235599775583283
-0,230931466705369
-0,226515724827388
-0,22242333512181
-0,218702347058276
-0,215375595816702
-0,212439811478086
-0,209866383394565
-0,207603733291098
-0,205581140100617
-0,203713760189963
-0,201908505657442
-0,20007038628445
-0,198108891450563
-0,195943988589812
-0,193511344324714
-0,1907664308197
-0,187687259027002
-0,184275576495471
-0,18055647356931
-0,176576450573849
-0,172400102521933
-0,168105669798686
-0,163779777082196
-0,159511733425621
-0,155387790825694
-0,151485755202159
-0,147870313076951
-0,144589381682988
-0,141671713885175
-0,139125897561072
-0,136940788602943
-0,135087314496134
-0,133521488784687
-0,132188392413609
-0,131026811927312
-0,129974181342626
-0,128971457282788
-0,127967566693932
-0,12692310241456
-0,125813001262079
-0,124628017775624
-0,123374898418218
-0,12207525920144
-0,120763267002295
-0,119482314164817
-0,11828095067244
-0,117208392769526
-0,116309957349233
-0,115622775591447
-0,115172116933742
-0,114968607338829
-0,115006557575572
-0,115263533105165
-0,115701203519794
-0,116267413447775
-0,116899325593992
-0,117527406998306
-0,118079967532692
-0,11848791968001
-0,118689413548018
-0,118634011821736
-0,118286104892584
-0,117627323840153
-0,1166577837652
-0,115396076405859
-0,113878022439887
-0,112154283494646
-0,110287015034575
-0,108345808015867
-0,10640321477239
-0,104530179749784
-0,102791696935196
-0,101242993398468
-0,0999264943633206
-0,0988697632355384
-0,0980845349884308
-0,0975668790018096
-0,0972984441313002
-0,0972486606248077
-0,0973777062482369
-0,097639992385086
-0,0979878935274841
-0,0983754324972932
-0,0987616443867937
-0,0991133733788579
-0,0994073056231442
-0,0996311042036896
-0,0997835839972811
-0,0998739393572398
-0,0999201103345281
-0,0999464381474149
-0,0999808130017057
-0,100051553403371
-0,100184273211243
-0,100398989876535
-0,100707704954187
-0,101112648076517
-0,101605321277983
-0,102166416269119
-0,10276660788304
-0,103368157996829
-0,103927200942816
-0,104396528797306
-0,104728656855482
-0,104878929118654
-0,104808422119394
-0,104486423065963
-0,103892293518626
-0,103016579894772
-0,101861292892989
-0,100439344669954
-0,0987731998424044
-0,0968928587687814
-0,0948333440140496
-0,0926318992127517
-0,0903251305530035
-0,0879463231592266
-0,085523147566021
-0,0830759366704758
-0,0806166639572798
-0,0781486935288204
-0,0756673066129923
-0,0731609433153941
-0,0706130380332834
-0,0680042772370814
-0,0653150735891228
-0,06252803350149
-0,0596301977825418
-0,0566148566999818
-0,0534827797996893
-0,0502427536708415
-0,0469113830346105
-0,0435121764476334
-0,0400740018701817
-0,036629053529032
-0,0332105150125118
-0,0298501303476354
-0,0265759025838821
-0,0234101272977532
-0,0203679376081814
-0,0174564903726279
-0,0146748645504249
-0,0120146775245843
-0,00946135943223288
-0,00699596529921176
-0,00459735555969192
-0,00224454195116493
8,1019038269756E-05
0,00239339756691013
0,00470061387010665
0,00700365814221486
0,00929619496054231
0,0115649755784852
0,0137909143823502
0,0159507227167927
0,0180189402146074
0,0199701657302519
0,0217812707936584
0,0234333800166926
0,024913425230713
0,0262151212571136
0,0273392674105344
0,0282933448059898
0,0290904491083805
0,0297476648300098
0,030284044234704
0,0307183957665249
0,0310671094218177
0,0313422472134891
0,0315501054105837
0,0316904133327527
0,0317562747186821
0,0317348875069112
0,031609002629567
0,031359009245362
0,0309654695986721
0,0304118776751661
0,0296873867635122
0,0287892451135232
0,0277246969299182
0,0265121467804866
0,0251814456642729
0,0237732313329225
0,0223373373839046
0,0209303678385772
0,0196126089816225
0,0184445113390725
0,0174830162004549
0,0167780191555967
0,0163692559764163
0,0162838641941701
0,0165348196984062
0,0171203761671635
0,0180245524088172
0,0192186259106271
0,0206635076690518
0,0223128008811037
0,0241162906498245
0,0260235781787068
0,027987563871019
0,0299674999024927
0,0319313726717548
0,0338574354104733
0,0357347857992784
0,0375629661344682
0,0393506471936989
0,0411135342208599
0,0428716978151183
0,0446465785646459
0,0464579382534453
0,0483210306384097
0,050244241401616
0,0522274023212874
0,0542609230523115
0,056325810766492
0,05839456970336
0,0604328962517963
0,0624020170391581
0,0642614634396745
0,0659720402867929
0,0674987322424111
0,0688132990997345
0,0698963403032789
0,0707386563586573
0,0713417962434586
0,0717177500171855
0,0718878184182689
0,0718807602074243
0,0717303775435903
0,0714727449336216
0,0711433146695573
0,0707741392307568
0,0703914385113134
0,0700137084282251
0,0696505203702943
0,0693021023008399
0,0689597271894899
0,0686068683216895
0,0682210194014391
0,0677760251219518
0,067244729130247
0,0666017238589203
0,0658259819613717
0,0649031619920567
0,0638274100266137
0,0626025213097283
0,0612423780076674
0,0597706362919628
0,0582196936204478
0,056629020648568
0,0550429876432169
0,0535083493584557
0,0520715728192015
0,0507761983258966
0,0496604154081458
0,0487550136605125
0,0480818357018308
0,0476528188616269
0,0474696671101275
0,0475241488063196
0,0477989725661147
0,0482691560123493
0,0489037728657283
0,0496679444417905
0,0505249330097677
0,0514381965895858
0,0523732767917133
0,0532994117266638
0,0541907927227134
0,0550274142675688
0,0557954986170698
0,0564875075266539
0,0571017812480156
0,0576418675725887
0,0581156198952413
0,0585341523365386
0,0589107416998098
0,0592597608575639
0,0595957169533637
0,059932451829762
0,0602825429470628
0,0606569223879756
0,0610647111386727
0,0615132471982509
0,0620082706787118
0,0625542178447223
0,0631545697863579
0,0638122002820682
0,0645296712702744
0,065309432662193
0,0661538950578906
0,0670653582175475
0,0680457935188666
0,0690964938541011
0,0702176181450527
0,0714076688507876
0,0726629485891145
0,0739770458180499
0,0753403991727237
0,0767399857274278
0,0781591706124733
0,0795777447997869
0,0809721654787488
0,0823160002256359
0,0835805632893133
0,0847357206123104
0,0857508305572536
0,0865957801788324
0,0872420725985815
0,0876639195498414
0,0878392942365864
0,0877509028107949
0,0873870374299041
0,0867422793815091
0,0858180265272676
0,0846228249035868
0,0831724893290579
0,0814900023068168
0,0796051844262594
0,0775541332175848
0,0753784314306019
0,0731241304752503
0,070840520788199
0,0685787084620323
0,0663900267381772
0,0643243217294605
0,0624281635304093
0,0607430458522444
0,0593036484390346
0,0581362454424992
0,0572573483571565
0,0566726727011312
0,056376512308335
0,0563515932069582
0,0565694602863737
0,0569914247874996
0,0575700700367527
0,058251278390003
0,0589767063227399
0,0596865994818571
0,0603228081989015
0,060831839210519
0,0611677637210721
0,0612947975670624
0,0611893774137081
0,0608415781447981
0,0602557503241887
0,0594503012777512
0,0584565963628851
0,0573170150471291
0,0560822553974058
0,0548080362607478
0,0535513943573123
0,0523668098098147
0,0513024149542854
0,0503965453014387
0,0496748772458605
0,0491483646925798
0,0488121379928657
0,0486454663202823
0,0486128131112807
0,0486659383258123
0,0487469265598269
0,0487919520214762
0,0487355352156256
0,0485150063831586
0,0480748705100017
0,0473707701095001
0,0463727651960218
0,0450676936561847
0,0434604367291768
0,0415739891968719
0,0394483169527412
0,0371380697254531
0,0347092978024533
0,0322353925005845
0,0297925256764118
0,0274548995459197
0,025290131770676
0,0233550910467021
0,0216924660242032
0,0203282976373152
0,019270635703647
0,0185094001774377
0,0180174415876514
0,0177527104681763
0,0176613681233565
0,0176816066549568
0,0177478994688891
0,01779537770541
0,0177640250074485
0,0176024025145774
0,017270656336907
0,0167426175218396
0,0160068750684545
0,0150667803479181
0,0139394201876976
0,0126536700106489
0,0112475020947644
0,00976477276573432
0,00825174269474753
0,00675359472531731
0,00531120354242105
0,00395838246657625
0,0027197875957637
0,00160960245966231
0,000631062248935143
-0,000223189241977888
-0,000969979249463242
-0,00163384574043015
-0,00224480267498036
-0,00283582343192967
-0,0034402456903068
-0,00408929537815919
-0,00480990654161725
-0,00562298065756533
-0,0065421864504971
-0,0075733536261063
-0,00871446537459592
-0,00995620895583024
-0,0112830047235828
-0,0126744042835091
-0,0141067297772893
-0,015554819281662
-0,0169937474549279
-0,0184004046159163
-0,0197548391552932
-0,0210412949579623
-0,0222489045904764
-0,0233720274513525
-0,0244102477056989
-0,025368067544186
-0,0262543461732113
-0,0270815434137988
-0,0278648291849332
-0,028621117547056
-0,029368077487969
-0,0301231641530887
-0,0309027050601288
-0,0317210676489788
-0,0325899281715479
-0,0335176579404252
-0,0345088414515202
-0,0355639411224304
-0,0366791246228717
-0,0378462715631052
-0,0390531755695258
-0,0402839542908156
-0,0415196728094756
-0,0427391751301853
-0,0439201040451352
-0,0450400728703377
-0,0460779346597682
-0,0470150776377343
-0,0478366619270695
-0,0485327043208152
-0,0490989168354534
-0,0495372123163202
-0,0498558071320786
-0,0500688764739097
-0,0501957506576764
-0,0502596787568047
-0,0502862257356055
-0,050301407315704
-0,0503296991968074
-0,050392080289957
-0,0505042801663097
-0,0506753967870219
-0,0509070308457153
-0,0511930482911325
-0,0515200347791252
-0,0518684484516473
-0,0522144151372284
-0,0525320483685257
-0,052796121231641
-0,0529848736173364
-0,0530827117922444
-0,053082550852863
-0,0529875664782316
-0,0528121602535879
-0,0525820005896443
-0,0523330746991364
-0,0521097703365661
-0,0519620920373774
-0,0519421976675365
-0,0521005097211938
-0,0524817051017674
-0,0531209118532478
-0,0540404382073568
-0,0552473275026955
-0,0567319738004344
-0,058467951563079
-0,0604131151413502
-0,062511918124604
-0,0646987980062139
-0,0669023774288011
-0,0690501581190748
-0,0710733346894196
-0,0729113376779063
-0,0745157308805269
-0,0758531365238332
-0,0769069395483243
-0,0776776229395964
-0,0781817012366335
-0,0784493392492201
-0,0785208571357051
-0,0784424213148422
-0,0782612943550129
-0,0780210593064124
-0,0777572407748947
-0,0774937153812043
-0,0772402403017162
-0,0769913354614445
-0,0767266404356561
-0,0764127407994463
-0,0760063313598997
-0,0754584662328045
-0,074719548179329
-0,0737446404636673
-0,0724986497328155
-0,0709609312468269
-0,0691289081101381
-0,0670203708509749
-0,0646742266713834
-0,0621495905123424
-0,0595232427004895
-0,0568856094810826
-0,0543355424890421
-0,0519742714062163
-0,0498989727976058
-0,0481964319382799
-0,0469372707263671
-0,0461711739947675
-0,0459234721116448
-0,0461933358109652
-0,0469537179666254
-0,0481530461883304
-0,0497185400103133
-0,051560907170723
-0,0535800741462122
-0,0556715341254165
-0,0577328560529453
-0,0596698937641494
-0,0614022642413365
-0,0628677256811632
-0,0640251740016476
-0,0648560833125422
-0,0653643332291957
-0,0655744845030193
-0,0655286753341401
-0,0652824057524357
-0,0648995499248067
-0,0644469814364244
-0,0639892119447422
-0,0635834290332361
-0,0632752766473284
-0,0630956554025774
-0,0630587360868632
-0,063161284770028
-0,0633832995737781
-0,0636898647231101
-0,0640340438981087
-0,0643605677181128
-0,0646100237472263
-0,0647232340546372
-0,0646455058261966
-0,0643304635438901
-0,0637432140183969
-0,062862654039396
-0,06168279935848
-0,0602130877916176
-0,0584776825165418
-0,0565138691260363
-0,0543696969566564
-0,0521010582409611
-0,0497684254803798
-0,0474334770228518
-0,0451558337850866
-0,0429901076480359
-0,0409834271923864
-0,0391735622035687
-0,0375877187562589
-0,036242025622508
-0,0351416839409058
-0,0342817091513537
-0,0336481596022067
-0,0332197222535405
-0,0329695132380719
-0,0328669500699881
-0,0328795620814869
-0,032974624740985
-0,0331205297386504
-0,0332878333868759
-0,0334499584404421
-0,0335835558553787
-0,0336685610617543
-0,0336880016090116
-0,0336276283293386
-0,0334754493976982
-0,0332212458075226
-0,0328561384093262
-0,0323722618785117
-0,0317625817349581
-0,0310208686016541
-0,0301418218621341
-0,0291213146400154
-0,0279567158754632
-0,0266472345555966
-0,0251942270450749
-0,02360141132005
-0,0218749413677029
-0,020023310290293
-0,0180570699474796
-0,0159883766503702
-0,0138303938871032
-0,0115966023441669
-0,00930008224138923
-0,00695284157811358
-0,00456526512435557
-0,00214575223692913
0,000299402656066829
0,00276585405117081
0,00525076672261688
0,00775211571619877
0,0102677745253274
0,0127944664261781
0,0153266738592329
0,0178556128515479
0,0203683822169629
0,0228473897396741
0,0252701399682438
0,0276094415537279
0,0298340584428735
0,0319097912446901
0,0338009361984239
0,0354720328308068
0,0368897811448604
0,0380249881445406
0,0388543939062959
0,0393622308952709
0,0395413867295504
0,0393940694047839
