0,00262383499944739
0,00922534518030056
0,015565221018107
0,0213986074094968
0,0265139550348152
0,0307460869422351
0,0339858103572441
0,0361853854597636
0,0373594924773684
0,0375816941102661
0,036976742373163
0,0357093982821683
0,0339706935344731
0,0319627447880852
0,0298833197817588
0,0279113448639901
0,0261944383915583
0,0248393648463342
0,0239060480538004
0,0234054815053822
0,023301555374682
0,0235165100835665
0,0239394503095803
0,024437132602782
0,0248660904137685
0,0250850918510264
0,0249669403654047
0,0244087221604314
0,023339765538762
0,0217267904357051
0,0195759713790214
0,0169318926289883
0,0138736189481552
0,0105083200488374
0,00696305534821662
0,00337543702095054
-0,000116062416602729
-0,00338140702556583
-0,00630722175032148
-0,00880339003879435
-0,0108076300334449
-0,0122878350867223
-0,0132421501869059
-0,01369693172073
-0,013702890377579
-0,0133298352888438
-0,0126605145017204
-0,0117840793876434
-0,0107896891204574
-0,00976072004468348
-0,00876996069900049
-0,00787606557062198
-0,00712141987168212
-0,00653144436437957
-0,00611525364781584
-0,00586748206902483
-0,00577101518997089
-0,00580031590827994
-0,00592501461833649
-0,00611344153870514
-0,0063358135478351
-0,006566842792809
-0,00678760388473902
-0,00698657389151649
-0,00715983762699306
-0,00731052348359322
-0,00744759666080627
-0,00758418281883121
-0,00773562323141498
-0,00791747124373531
-0,0081436298645858
-0,00842480352606324
-0,00876739674924829
-0,00917294272936465
-0,00963809042326879
-0,0101551244005033
-0,0107129421345688
-0,011298372597808
-0,011897691144087
-0,0124981708489333
-0,0130895105494113
-0,0136649944956838
-0,0142222661434104
-0,014763636663651
-0,0152958936839369
-0,0158296236992249
-0,0163781082242208
-0,0169558950454467
-0,0175771781969757
-0,0182541406487032
-0,01899542026797
-0,0198048516252082
-0,0206806142382396
-0,0216148835229666
-0,0225940369519037
-0,0235994183274482
-0,0246086119826374
-0,0255971305659777
-0,0265403792206252
-0,0274157291820288
-0,0282045180334327
-0,0288937938154325
-0,0294776362965939
-0,029957920033333
-0,0303444279795695
-0,0306542779240526
-0,0309106824273866
-0,0311411213496726
-0,0313750593715739
-0,0316413844451616
-0,0319657728403162
-0,0323681995430924
-0,0328608077045066
-0,0334463276661597
-0,0341171964199271
-0,034855475195957
-0,0356336004676838
-0,0364159370335082
-0,0371610365209276
-0,0378244460329082
-0,0383618646569199
-0,0387324141507337
-0,0389017770153347
-0,0388449615241989
-0,0385484787295667
-0,0380117589793273
-0,0372476917176757
-0,0362822377786872
-0,0351531328477243
-0,0339077687188509
-0,032600400111807
-0,0312888743874441
-0,0300311157563403
-0,0288816120251697
-0,0278881495365963
-0,0270890211807199
-0,0265108950486293
-0,0261674806695511
-0,0260590698336003
-0,026172964584427
-0,026484740928573
-0,0269602380712899
-0,0275581137464505
-0,0282327699643888
-0,0289374326102826
-0,0296271639412123
-0,030261599036236
-0,0308072242932787
-0,0312390557445274
-0,0315416239441097
-0,0317092265995385
-0,0317454657682126
-0,0316621391405308
-0,0314776008474596
-0,0312147430894848
-0,0308987732459584
-0,0305549705512416
-0,0302066014490767
-0,0298731541474038
-0,0295690222099687
-0,0293027269780621
-0,029076722286825
-0,028887776129844
-0,0287278763682705
-0,0285855650650301
-0,0284475718272809
-0,0283005933062489
-0,0281330555797842
-0,0279366992348652
-0,0277078433680403
-0,0274482129819668
-0,0271652521194647
-0,0268718893182064
-0,0265857689869467
-0,0263280080852262
-0,0261215781902088
-0,0259894451703432
-0,0259526195062749
-0,0260282779547395
-0,0262281111229892
-0,0265570320771391
-0,0270123501500714
-0,0275834743252072
-0,0282521656112733
-0,0289933117289606
-0,0297761543853696
-0,0305658634143
-0,0313253262773108
-0,0320170083011249
-0,0326047395199336
-0,0330552980232329
-0,033339685604083
-0,0334340265999834
-0,033320061435226
-0,0329852482683859
-0,0324225249671347
-0,031629815277058
-0,0306093842085148
-0,0293671560476506
-0,027912103110494
-0,0262557949505416
-0,0244121681894337
-0,0223975397077542
-0,020230844812971
-0,0179340418796515
-0,0155325906135882
-0,0130558867392289
-0,0105375249443722
-0,00801526625309313
-0,00553060614564986
-0,00312787431150561
-0,000852843138328851
0,00124912448119944
0,00313530185166205
0,00476806164991367
0,00611739497966693
0,00716327749553768
0,00789766373479187
0,00832590103262537
0,0084673852958847
0,00835533067946619
0,00803559031837471
0,0075645404195932
0,00700611884417348
0,00642818478831053
0,00589843132902975
0,00548013116850467
0,00522802293399265
0,0051846476513856
0,00537742153637513
0,00581668317462499
0,00649488405307785
0,00738700652087507
0,00845219957428805
0,009636528084099
0,0108766432300082
0,0121041084415069
0,0132500624307897
0,0142498735086797
0,0150474397788797
0,0155988180747668
0,0158749183687292
0,0158630753264814
0,0155673984484393
0,0150078992936388
0,0142184905037892
0,0132440387498113
0,0121367251030292
0,0109520159350843
0,00974457139868865
0,00856441524449686
0,0074536598328289
0,00644402672161401
0,00555533104180122
0,00479501346580146
0,00415871428967524
0,00363179765252845
0,00319165749105742
0,00281057668890963
0,00245887184279298
0,00210804087322339
0,00173364012594919
0,00131765016045494
0,000850141745963314
0,000330120605238206
-0,00023449499960058
-0,000827732430675497
-0,00142715491470598
-0,00200601908343881
-0,00253579014807239
-0,00298877985380026
-0,0033406685100456
-0,00357268965528009
-0,00367329215767256
-0,00363914609079451
-0,0034754205254985
-0,0031953277679498
-0,00281899349709737
-0,00237177002773811
-0,00188215564394878
-0,00137951287227913
-0,000891790518853295
-0,000443447692570023
-5,37540535985125E-05
0,000264398292880215
0,000505085525742576
0,000669315626664732
0,000764391769564471
0,000802755527708116
0,000800434056965577
0,000775247291986425
0,00074494827103848
0,000725470828937404
0,000729444463371708
0,000765107829872603
0,000835712949978534
0,000939465550206507
0,0010699972804931
0,00121731724927405
0,00136914754215287
0,00151251370825657
0,00163543923104163
0,00172858439022003
0,00178667503721362
0,0018095849337077
0,00180296462730877
0,00177834772666543
0,00175270857944204
0,00174749023371153
0,00178716453202695
0,00189742393683437
0,00210313443598059
0,00242619852517823
0,00288348554274895
0,0034849832471703
0,00423230994870311
0,0051177020597961
0,00612355964056761
0,00722259477347773
0,00837858720842751
0,00954771148721292
0,0106803624008407
0,0117233735844922
0,0126224993183238
0,0133250136102432
0,0137822742383855
0,0139521028308604
0,0138008448203042
0,0133049942319128
0,0124522962345618
0,0112422733232123
0,00968615669026561
0,00780624054054681
0,00563471143428043
0,0032120350931419
0,000585007571844594
-0,00219540521208791
-0,00507630690190646
-0,00800505651585356
-0,0109312769667759
-0,0138085794522602
-0,0165959205089306
-0,019258537184369
-0,0217684374078911
-0,0241044549379444
-0,0262519089206387
-0,0282019348279599
-0,0299505744543342
-0,0314977261645764
-0,0328460617659152
-0,0340000128327812
-0,0349649174086732
-0,0357463987030471
-0,0363500222564604
-0,036781249132634
-0,0370456723653235
-0,0371494946455656
-0,0371001795408406
-0,0369071885743259
-0,0365827040049876
-0,0361422333269719
-0,0356049967913521
-0,0349940134421978
-0,03433582321311
-0,0336598109691426
-0,0329971308129851
-0,0323792629952653
-0,0318362686847745
-0,0313948370717176
-0,0310762423678657
-0,0308943434043444
-0,03085376431778
-0,0309483907371763
-0,0311603020349034
-0,0314592375402037
-0,0318026646651405
-0,0321364818048622
-0,0323963511070323
-0,0325096184543379
-0,032397742851979
-0,0319791272984371
-0,031172220072046
-0,0298987405983216
-0,0280868784381834
-0,0256743174622079
-0,0226109493194791
-0,0188611596354864
-0,0144055951992222
-0,00924234870492495
-0,00338752716292779
0,00312480125110097
0,0102432613059034
0,0179003836686308
0,0260143184539082
0,0344909807159814
0,0432265544730514
0,0521102819311417
0,0610274683556298
0,0698626389698075
0,0785027907041959
0,0868406869018128
0,0947781458464203
0,102229273140858
0,109123583071531
0,115408945230639
0,121054280613616
0,12605191748715
0,130419503443427
0,134201358395459
0,137469146237349
0,140321742762881
0,142884186215322
0,145305615927012
0,147756134631985
0,150422570928145
0,153503168883071
0,157201289687363
0,161718272513494
0,167245664454661
0,173957088305455
0,182000067395755
0,19148816433905
0,202493811413838
0,215042211304849
0,229106666056759
0,244605648764847
0,261401867586432
0,27930348758894
0,29806757661664
0,317405732006585
0,33699173175219
0,356470943436845
0,375471123852594
0,393614158343644
0,410528227370358
0,425859853208994
0,439285275058892
0,450520627285797
0,459330452238322
0,46553416320716
0,469010179985421
0,469697582922984
0,467595263959543
0,462758686811615
0,45529449509669
0,445353318887503
0,433121220173692
0,418810280483229
0,402648865797292
0,38487210315819
0,365713070467027
0,345395138324136
0,324125814816654
0,302092336811482
0,279459131776338
0,256367150230933
0,232934948729672
0,209261294431132
0,185428971745283
0,161509404780296
0,137567670338939
0,113667467048807
0,089875626973126
0,0662658047740023
0,0429210524479376
0,0199350794528523
-0,00258789788354008
-0,0245347048210925
-0,0457860354626621
-0,0662203436965578
-0,0857185035361008
-0,104168887681147
-0,121472482464121
-0,137547654872982
-0,152334213080427
-0,165796453789477
-0,17792496382316
-0,188737034137568
-0,198275645093932
-0,206607084835017
-0,213817360328123
-0,220007645760897
-0,225289079227611
-0,229777261120457
-0,233586823337617
-0,236826426339466
-0,239594502420183
-0,241976001524522
-0,244040315576195
-0,245840465012982
-0,247413534348442
-0,248782249716156
-0,249957507777445
-0,250941598455262
-0,251731818688601
-0,252324153932796
-0,252716709596632
-0,252912605057856
-0,252922095372522
-0,252763755621356
-0,252464644085284
-0,252059446353279
-0,251588686097122
-0,251096163031841
-0,250625838819038
-0,250218433014789
-0,249908010922874
-0,249718842494038
-0,249662787145455
-0,24973741618311
-0,249925026390468
-0,250192630315948
-0,250492936420244
-0,250766261199956
-0,250943250934584
-0,250948237342758
-0,250703012569307
-0,25013078667212
-0,249160085880751
-0,247728361751225
-0,245785108113897
-0,243294321651387
-0,240236189559311
-0,236607940197903
-0,23242384607474
-0,227714419231447
-0,222524884015812
-0,216913048796724
-0,210946724725287
-0,204700855259365
-0,198254524770789
-0,191688008727718
-0,185080012940674
-0,178505226803359
-0,172032287339086
-0,165722219293477
-0,159627383610048
-0,153790934443502
-0,148246755214796
-0,14301981867169
-0,138126895701154
-0,133577523643239
-0,129375137520209
-0,125518267054654
-0,122001708249196
-0,118817589999361
-0,115956272660123
-0,113407035387499
-0,111158530897932
-0,109199008371862
-0,107516325898362
-0,106097791530682
-0,104929885346015
-0,103997922833798
-0,10328572191834
-0,102775331819876
-0,102446872278561
-0,1022785173143
-0,102246640139719
-0,10232611680174
-0,102490767559053
-0,102713898835224
-0,102968896574543
-0,103229815340249
-0,103471907362499
-0,103672042173926
-0,10380897993782
-0,103863478931928
-0,103818238103328
-0,103657697023663
-0,103367735498289
-0,102935331214623
-0,10234824403657
-0,101594798343992
-0,100663829324221
-0,0995448453702754
-0,09822843761659
-0,0967069408715966
-0,0949753202538686
-0,0930322275829363
-0,0908811441929452
-0,0885315053088754
-0,0859996881174362
-0,0833097430253713
-0,0804937563775851
-0,0775917529749479
-0,074651076944617
-0,0717252276261423
-0,0688721701023909
-0,0661521841440834
-0,0636253567236451
-0,0613488581014496
-0,059374166424878
-0,0577444182913111
-0,0564920613285195
-0,0556369692938611
-0,0551851514934667
-0,0551281487070151
-0,0554431604724588
-0,0560938974903156
-0,0570321023488989
-0,0581996360009428
-0,0595309902965794
-0,0609560614194982
-0,0624030072951175
-0,0638010146522083
-0,0650828178837919
-0,0661868403057751
-0,0670588660362237
-0,0676531937792662
-0,0679332682704734
-0,067871826850608
-0,0674506338502453
-0,0666599011186383
-0,0654975070860974
-0,0639681283286111
-0,0620823871050636
-0,0598560973543253
-0,0573096627574706
-0,0544676470991286
-0,0513585030355756
-0,0480144143602996
-0,0444711823559985
-0,0407680716616626
-0,036947526987614
-0,033054679670617
-0,0291365818464899
-0,0252411341888794
-0,0214157079544409
-0,0177054999890286
-0,0141516964926817
-0,0107895538080367
-0,00764652872624206
-0,00474060397314715
-0,00207895480130275
0,000342910686398553
0,00254143110440431
0,00454462221352245
0,0063910347455829
0,00812806615989031
0,00980970314758917
0,01149381784566
0,0132391787633151
0,0151023638467843
0,0171347755172791
0,0193799545540573
0,0218713713882018
0,0246308409681503
0,0276676633837607
0,0309785403068408
0,0345482612023051
0,038351097654497
0,0423527934848478
0,0465129966391453
0,050787949350304
0,0551332381194022
0,0595064056293739
0,063869242596654
0,0681896073016747
0,0724426615257056
0,0766114603795692
0,0806868859667928
0,0846669666753172
0,0885556709127723
0,0923613025913474
0,0960946526140104
0,0997670741125824
0,103388648389309
0,106966593869175
0,110504043444121
0,113999278984772
0,11744546886975
0,120830909011787
0,124139724033712
0,127352946750229
0,130449864210305
0,133409499667358
0,136212093389632
0,138840451432917
0,141281049499797
0,143524806802205
0,145567479584128
0,147409662186462
0,149056421493155
0,150516624617499
0,151802046516645
0,152926361364876
0,153904127427593
0,154749869483996
0,155477346317276
0,156099065328107
0,156626074727968
0,157068029478747
0,157433493912627
0,157730415432401
0,157966683030886
0,158150673951385
0,158291692925157
0,158400221113426
0,158487914956696
0,158567326210168
0,158651350184083
0,158752445718596
0,158881703501381
0,159047865136051
0,159256410554936
0,1595088337751
0,15980221564293
0,160129177652651
0,160478265125983
0,160834764279691
0,161181910281005
0,16150239716935
0,161780060519204
0,16200157449342
0,162157990220038
0,162245944542999
0,162268387948949
0,162234716825213
0,162160245443661
0,162065012943552
0,161971984672641
0,161904769515997
0,161885029108919
0,161929795493442
0,162048936302533
0,162243007958979
0,162501716636041
0,162803164808673
0,163114001234517
0,163390518922201
0,16358066536296
0,163626849045385
0,163469353311566
0,163050109725716
0,162316543931882
0,16122519147941
0,159744791182573
0,157858598900312
0,155565722562182
0,152881355114428
0,149835869515369
0,146472831540201
0,142846074098308
0,139016053479073
0,135045766778882
0,130996545663843
0,126924051521665
0,122874780120751
0,118883341669679
0,114970718330553
0,111143621325378
0,107394980645036
0,103705509601634
0,100046201672635
0,0963815452576354
0,0926731888577092
0,0888837588753259
0,0849805267088311
0,0809386409944918
0,0767436824739917
0,0723933589955374
0,0678982310554198
0,0632814376313519
0,0585774710773426
0,0538301220236165
0,0490897748697688
0,0444102771709059
0,0398456291977467
0,0354467422109409
0,0312584963431046
0,027317293896161
0,023649255178924
0,0202691465162249
0,0171800690974135
0,0143738781474611
0,0118322493972696
0,00952826792634468
0,00742838598112372
0,00549458276022035
0,00368656041916176
0,00196382541419432
0,000287530317917804
-0,00137801485396998
-0,00306421470942796
-0,00479745850326948
-0,00659876761988552
-0,00848377124744366
-0,0104629406586072
-0,0125420017941276
-0,0147224448786028
-0,0170020576973441
-0,0193754242433243
-0,0218343503616418
-0,0243682001137876
-0,0269641481387476
-0,0296073717750565
-0,0322812201413445
-0,0349674043632676
-0,0376462531268087
-0,040297070931477
-0,0428986237943821
-0,0454297603117262
-0,0478701569149906
-0,0502011571135895
-0,0524066576490659
-0,0544739817308861
-0,0563946723314261
-0,0581651377388265
-0,0597870873890809
-0,0612677079191102
-0,0626195463190688
-0,0638600874122491
-0,0650110347908273
-0,0660973258093122
-0,0671459303789688
-0,0681844985568223
-0,0692399320941992
-0,070336959607561
-0,0714967937653953
-0,0727359423543196
-0,0740652342044467
-0,0754891069656511
-0,0770051880451631
-0,0786041840145961
-0,0802700787261687
-0,0819806271290731
-0,0837081209480906
-0,0854203940822168
-0,0870820296050654
-0,0886557260877733
-0,0901037779210574
-0,091389621717455
-0,0924793981360614
-0,0933434752996266
-0,0939578764238446
-0,0943055507763589
-0,0943774244755827
-0,0941731670075708
-0,0937016119401004
-0,0929807773544527
-0,0920374439218556
-0,0909062668602897
-0,0896284220606486
-0,0882498156405218
-0,086818918443626
-0,085384320232448
-0,083992129653056
-0,082683372293478
-0,0814915571078301
-0,0804405882921223
-0,0795431931608396
-0,0788000155376312
-0,078199488656043
-0,0777185529990315
-0,0773242257094019
-0,0769759631945642
-0,0766286924033
-0,0762363245448593
-0,0757555135047842
-0,0751493851636536
-0,0743909475687529
-0,0734658983575352
-0,0723745760402281
-0,0711328547802899
-0,0697718551208429
-0,0683364307078363
-0,0668824869053211
-0,0654732835895051
-0,0641749632408516
-0,0630516188283399
-0,0621602669813969
-0,0615461152838416
-0,0612385050519741
-0,0612478720974202
-0,0615639997783854
-0,0621557458034187
-0,0629723136775928
-0,0639460200564011
-0,0649963902605916
-0,066035305693243
-0,0669728381096898
-0,06772334436585
-0,068211367010725
-0,0683768937476637
-0,0681795722978132
-0,0676015534212869
-0,0666487378993972
-0,0653503249564716
-0,0637566900809401
-0,0619357489164258
-0,0599680803341146
-0,0579411765299463
-0,0559432533596983
-0,0540570849528991
-0,0523543206647588
-0,0508907003917002
-0,0497025099765253
-0,0488045182275459
-0,0481895194273287
-0,0478294798655326
-0,0476781641111373
-0,0476750063028698
-0,0477499022638437
-0,0478285364730583
-0,0478378281051803
-0,0477110840343144
-0,0473924826528431
-0,046840576716066
-0,046030590167109
-0,0449553853045162
-0,0436250841249834
-0,0420654323702337
-0,0403150884529885
-0,0384220949815696
-0,0364398427028113
-0,0344228621567395
-0,0324227762625675
-0,0304847187862153
-0,028644472613716
-0,026926513038188
-0,0253430611806283
-0,0238941681023039
-0,0225687680597756
-0,0213465661205734
-0,0202005663373636
-0,0191000058736868
-0,0180134401570656
-0,0169117248832628
-0,0157706613746343
-0,0145731097363469
-0,0133104256103297
-0,0119831363636638
-0,0106008361551487
-0,0091813413615037
-0,00774920359849776
-0,00633372306559669
-0,00496663722681502
-0,00367967711444041
-0,0025021852880055
-0,0014589763485434
-0,000568594659891408
0,000157912786346078
0,000717634360618625
0,00111581611342763
0,00136528926443054
0,00148536742475841
0,00150031517251788
0,00143751757142218
0,00132549747033433
0,00119193318088505
0,00106182343697114
0,000955930321763757
0,000889605640315528
0,000872074214626588
0,00090621129422623
0,000988813470391032
0,00111132591034718
0,00126095594055291
0,00142207627205838
0,00157780217776207
0,00171161688798433
0,00180891884702842
0,00185837311278041
0,00185296627717662
0,00179068842239858
0,00167479497599076
0,00151363365852209
0,0013200546591616
0,00111045333457435
0,000903521846476291
0,000718807330295486
0,000575187907468308
0,000489383216576214
0,000474612810545404
0,00053950406431688
0,000687332111488252
0,000915649220752491
0,00121633185537248
0,00157604259859739
0,00197707349750553
0,00239850943944069
0,00281762696258529
0,0032114271119758
0,00355819175585999
0,00383895179737181
0,00403876293400236
0,00414769942125805
0,00416149750492151
0,0040818061515266
0,003916031459855
0,00367679051118715
0,00338101824051561
0,00304879516362503
0,00270198274407274
0,00236276553321289
0,00205220416350294
0,00178890060720821
0,00158786715675956
0,0014596742021655
0,00140993040604468
0,00143912394516746
0,00154282699164965
0,00171223946368197
0,00193502415772154
0,0021963653485521
0,00248016812019748
0,00277030704657291
0,00305183081996098
0,00331203406440893
0,00354131841653801
0,00373378114015176
0,00388748989711975
0,00400442534859866
0,00409009744825063
0,00415286497170547
0,00420300943537469
0,00425163269490217
0,00430946099979178
0,00438564624221886
0,00448665706283752
0,00461534817802638
0,00477028601216569
0,00494539300919826
0,00512995274690177
0,00530899438704554
0,00546404941957779
0,00557424766805521
0,00561769470799225
0,00557305079925475
0,00542121363899166
0,00514699498551044
0,00474067550438751
0,00419932372047064
0,00352777396181588
0,00273917449022005
0,00185503995072926
0,000904770732484745
-7,53657137117886E-05
-0,00104376199504976
-0,00195544218919327
-0,00276438114855437
-0,00342604756931127
-0,0039000255700005
-0,00415255676398632
-0,00415884169426721
-0,0039049467422209
-0,00338918026017854
-0,00262282902323455
-0,00163018177233759
-0,000447808582829566
0,00087688952522741
0,00228779986646593
0,00372278131245686
0,00511676786906328
0,00640511867064779
0,00752702070859862
0,00842874312571656
0,00906654752465049
0,00940907734219217
0,00943907992891556
0,009154355605994
0,00856787598404677
0,00770706594811649
0,0066122963363753
0,00533468377758508
0,0039333369294106
0,00247222146221435
0,00101683725324153
-0,000369090992399266
-0,00162671453323642
-0,0027047768329467
-0,0035618000238064
-0,00416763615700945
-0,00450432350402098
-0,00456623625239118
-0,00435956274597144
-0,00390118946121216
-0,00321710222430467
-0,00234044040582244
-0,00130935260692261
-0,000164803214559388
0,0010515312708486
0,00229915753662441
0,00354036165693206
0,00474144803762059
0,00587359712762214
0,00691335052491116
0,00784276033269282
0,00864926110900755
0,00932533599896627
0,00986805289693268
0,0102785420490714
0,0105614744627356
0,0107245827451909
0,0107782449623601
0,0107351305273115
0,0106098877400192
0,0104188378489379
0,0101796323184024
0,00991082951682981
0,0096313545686338
0,0093598209709013
0,00911371322482645
0,00890845388020003
0,00875640324788486
0,00866586253748926
0,00864016841367907
0,00867697632230376
0,00876782963247557
0,00889810064716841
0,00904736804981
0,00919026455465776
0,00929779072079728
0,00933904918873395
0,00928331174467442
0,00910229363649525
0,00877247930473101
0,00827732459541527
0,00760915510702618
0,00677059005214557
0,00577534599454227
0,00464831380571776
0,00342485260001409
0,00214930251724602
0,000872779477237596
-0,000349625622768272
-0,00146206845308755
-0,00241137802224131
-0,00315044799257483
-0,00364134483316987
-0,00385789744943941
-0,0037875642397167
-0,00343242180840658
-0,00280918138551597
-0,00194820967566269
-0,000891604973335888
0,000309548976521724
0,00159856540528138
0,00291693712962391
0,00420825055411708
0,00542194984761212
0,00651667901658703
0,00746295939861145
0,00824500851883316
0,00886156958504116
0,00932569423365838
0,00966349878798916
0,00991199021655904
0,010116126297837
0,0103253299791206
0,0105897163182273
0,010956308914171
0,0114655200792023
0,0121481456260171
0,0130230830654815
0,0140959247118356
0,0153585093203695
0,0167894428189657
0,0183555261786976
0,0200139621231631
0,0217151571984885
0,0234058958599996
0,0250326414411616
0,0265447165589417
0,0278971324438718
0,0290528711895838
0,0299844739036268
0,030674847090961
0,0311172643959128
0,0313146058307225
0,0312779366643333
0,0310245785264169
0,0305758621494912
0,0299547718150143
0,0291836945656492
0,0282824726623681
0,027266926994421
0,0261479748920653
0,0249314117917679
0,0236183668912552
0,0222063831604562
0,0206910166530486
0,019067803428719
0,0173344082471691
0,0154927502508645
0,0135508985769673
0,0115245454577465
0,00943789475484298
0,00732384767837246
0,00522342138229524
0,00318439604659559
0,00125924744644902
-0,00049751977379537
-0,00203247227713251
-0,00329657658454657
-0,00424852609654174
-0,00485782820835985
-0,0051074217564839
-0,00499562030033752
-0,00453721700464536
-0,00376363942490302
-0,00272210375990825
-0,00147378394093266
-9,1076770987088E-05
0,00134589426649352
0,00275334115147849
0,00404820353770861
0,00515260967441334
0,00599813601056869
0,00652960425105949
0,00670818035606964
0,00651358101801179
0,00594524683963521
0,00502240431338493
0,00378300669749944
0,00228161259552761
0,000586326055354381
-0,0012250208367281
-0,00306921623263318
-0,00486228970383989
-0,00652413328036036
-0,00798285128784764
-0,00917858670617043
-0,0100666059821786
-0,010619471523672
-0,0108281883255288
-0,0107022745807114
-0,0102687716341515
-0,0095702720828475
-0,00866210228684355
-0,00760884354916484
-0,00648041193874985
-0,0053479382202112
-0,00427969560253254
-0,00333731398512385
-0,00257249602298908
-0,00202441443600168
-0,00171792412399967
-0,00166266988913937
-0,00185311436865466
-0,00226945469674009
-0,00287934388197312
-0,00364028704559155
-0,00450254615530557
-0,00541236165272482
-0,00631528668902397
-0,00715942992675388
-0,00789841567547521
-0,00849389432099854
-0,00891746976353371
-0,00915195146784873
-0,00919188400126263
-0,00904335355238242
-0,00872311589224777
-0,00825713069466067
-0,00767862061303717
-0,00702579801064798
-0,00633941646706884
-0,00566030751652037
-0,00502705566645735
-0,0044739475130627
-0,00402930527834294
-0,00371428344529994
-0,00354217189991557
-0,0035182127779416
-0,00363990374693931
-0,00389773021187234
-0,00427624493031161
-0,00475539724928634
-0,00531200640400413
-0,00592127409278681
-0,00655824017242809
-0,00719910049655985
-0,00782232576741697
-0,00840954265822955
-0,00894616107776714
-0,00942175214011341
-0,00983019831778493
-0,0101696490735259
-0,0104423212631809
-0,0106541838057735
-0,010814561187235
-0,0109356815816477
-0,0110321844814327
-0,0111205916627133
-0,0112187360393954
-0,0113451372098712
-0,0115183115068779
-0,0117560087375687
-0,012074377434349
-0,0124870743883916
-0,0130043509345693
-0,0136321657203104
-0,0143713890617383
-0,0152171749306686
-0,0161585808869256
-0,0171785121350271
-0,0182540524629615
-0,0193572221704657
-0,0204561723451569
-0,0215167881793863
-0,0225046344708426
-0,023387137697381
-0,0241358650872928
-0,0247287357883051
-0,0251519859304158
-0,025401710575316
-0,0254848224866541
-0,0254193001880184
-0,0252336442168152
-0,024965517718075
-0,0246596111718244
-0,0243648358773138
-0,0241310111224995
-0,0240052601338113
-0,0240283649297595
-0,0242313462165193
-0,0246325291119254
-0,0252353282584657
-0,026026938231899
-0,0269780504119159
-0,0280436406711493
-0,0291647896673132
-0,0302714161764987
-0,0312857309538549
-0,032126160622543
-0,0327114534933732
-0,0329646657565248
-0,0328167387716946
-0,0322094155610656
-0,0310973041262493
-0,0294489717981338
-0,0272470417763799
-0,0244873525130614
-0,0211773243989377
-0,0173337484793702
-0,0129802618455444
-0,00814479887344514
-0,00285730380489581
0,00285204196364478
0,00895388270853655
0,0154199254727637
0,022222329048207
0,0293323215146166
0,0367182182881595
0,0443430948442007
0,0521624289872774
0,0601220599772658
0,0681568115571354
0,0761900913290443
0,0841347113786425
0,0918950789685497
0,0993707886251638
0,106461517330163
0,113072993555191
0,119123689874494
0,124551788781073
0,129321901772216
0,133430990202132
0,136912947437089
0,139841356784837
0,142330036271895
0,144531113926901
0,146630537085025
0,148841095142618
0,151393214379682
0,154523952485679
0,158464766240972
0,163428736804797
0,169598004023035
0,177112177950941
0,186058459909817
0,19646411826889
0,208291830986017
0,221438236453067
0,235735837952611
0,250958198586602
0,266828157473017
0,28302860879795
0,299215226289136
0,315030397976329
0,330117567909339
0,344135167342811
0,356769358410802
0,367744905156689
0,376833622936019
0,383860027484327
0,388703996842141
0,391300458900278
0,391636310318637
0,389744945417951
0,385698914524531
0,379601330890754
0,371576697703384
0,361761829381588
0,350297495658486
0,337321327654736
0,322962400224801
0,307337754612347
0,290550961849969
0,272692662935522
0,253842868886424
0,234074673335473
0,213458931402394
0,192069397503623
0,169987794894451
0,14730831120122
0,124141074049057
0,100614253397607
0,0768745543965366
0,053085996922175
0,0294270150927305
0,00608604164647556
-0,0167441415290706
-0,0388729123506683
-0,0601187390500407
-0,0803160640824812
-0,0993216776451933
-0,117020154676949
-0,133327996543354
-0,148196209945743
-0,161611163752064
-0,173593681306876
-0,184196442864027
-0,193499881894457
-0,201606852804482
-0,208636420024089
-0,214717165152984
-0,219980427492499
-0,224553883480192
-0,228555833896936
-0,232090507654002
-0,235244612399091
-0,238085271132689
-0,240659387160261
-0,242994383857476
-0,245100177421135
-0,246972165789174
-0,248594959854731
-0,249946547243717
-0,251002565858868
-0,251740374129436
-0,252142635826609
-0,252200186368843
-0,251914010534866
-0,251296233435982
-0,250370101975343
-0,249169007390925
-0,247734665725652
-0,246114627819156
-0,244359330327592
-0,242518922229268
-0,240640106488826
-0,238763224570482
-0,236919784102414
-0,235130590009992
-0,23340459045492
-0,231738494951383
-0,230117167295171
-0,228514744324276
-0,226896386532623
-0,225220530868007
-0,223441491480343
-0,221512241577687
-0,219387208789655
-0,217024926498554
-0,214390402784637
-0,211457094709506
-0,20820840612344
-0,204638659491788
-0,200753524016964
-0,196569911592251
-0,192115377293745
-0,187427081256226
-0,182550383415898
-0,177537151830877
-0,172443869567053
-0,167329625253804
-0,162254069230422
-0,157275411699885
-0,1524485322573
-0,147823262236979
-0,143442892933182
-0,139342954080665
-0,135550298028182
-0,132082515649553
-0,128947700024009
-0,126144563099805
-0,123662898890849
-0,121484374344334
-0,11958361620402
-0,117929549468805
-0,116486931163879
-0,115218012874666
-0,114084257725842
-0,113048032995421
-0,112074198979286
-0,111131518436435
-0,110193819066315
-0,10924085370263
-0,108258818689291
-0,107240509311889
-0,106185111054354
-0,105097645553385
-0,103988109085063
-0,102870358001028
-0,101760808640975
-0,100677028085557
-0,0996362961990647
-0,098654218648759
-0,0977434652101138
-0,0969126982967957
-0,096165744098768
-0,0955010440284378
-0,0949114084389427
-0,094384078870515
-0,0939010903426289
-0,0934399121902218
-0,0929743351390206
-0,0924755639628279
-0,0919134691306861
-0,0912579471012438
-0,0904803369580178
-0,0895548404426179
-0,0884598926974709
-0,0871794318240469
-0,0857040165164361
-0,0840317425824226
-0,0821689113289771
-0,0801304060124928
-0,0779397373824085
-0,0756287263865667
-0,0732368018967905
-0,0708099042385888
-0,0683990014632654
-0,0660582444323087
-0,0638428082317033
-0,0618064900994324
-0,05999915648332
-0,058464152261462
-0,0572358016417126
-0,0563371408705189
-0,055778025890421
-0,055553752116014
-0,0556443077766682
-0,05601435665746
-0,0566140112776968
-0,0573804150817842
-0,058240104341718
-0,0591120701545468
-0,0599113915540102
-0,0605532659906523
-0,0609572268621366
-0,0610513126461872
-0,0607759411166667
-0,0600872468392234
-0,0589596613268949
-0,0573875523273257
-0,0553857899974881
-0,0529891702721815
-0,0502506957184536
-0,0472387869371724
-0,0440335681899507
-0,0407224342657511
-0,0373951570310072
-0,0341388255537091
-0,0310329302432374
-0,0281448973850747
-0,0255263555692024
-0,0232103710721478
-0,0212098280142211
-0,0195170550669789
-0,0181047186760294
-0,0169279188635562
-0,0159273436164742
-0,0150332673634414
-0,0141701232194012
-0,0132613415816282
-0,0122341320617075
-0,0110238927787896
-0,00957796026940256
-0,00785846250426049
-0,00584410316830859
-0,00353078255068998
-0,000931043439322844
0,00192758687077494
0,00500521100750681
0,00825292060688455
0,0116166405346135
0,0150411709255077
0,0184741336280494
0,0218695453131924
0,0251907753451214
0,0284126993554511
0,0315229248935917
0,0345220381864108
0,0374228951644573
0,0402490496591016
0,043032471775761
0,0458107554661608
0,048624043109917
0,0515119048024783
0,0545104009623957
0,0576495302936753
0,0609512239688671
0,0644279951553101
0,0680822954333746
0,0719065713506896
0,0758839602755182
0,0799895192201794
0,0841918468995181
0,0884549401969626
0,0927401223256779
0,0970078907473702
0,101219556537473
0,105338580347497
0,109331549735758
0,113168784178331
0,116824593395422
0,120277247904927
0,123508744888887
0,126504465491179
0,129252820685912
0,131744972264919
0,133974694855365
0,135938416773038
0,137635445243818
0,139068348762003
0,140243439832274
0,141171278360217
0,141867102192124
0,142351088426869
0,142648357696132
0,142788653002486
0,142805653182276
0,142735915895928
0,142617482883025
0,142488217244007
0,142383975012093
0,142336737848567
0,142372847625978
0,142511485263627
0,142763524834508
0,143130870300112
0,143606348054144
0,144174186521695
0,144811067983276
0,145487691506531
0,14617074351225
0,146825137819758
0,147416363206622
0,147912765786959
0,148287596992679
0,148520675505539
0,148599541786988
0,148520024415559
0,148286184917176
0,147909658149749
0,147408454349393
0,146805332464113
0,146125888707053
0,145396526390109
0,1446424811225
0,143886068670426
0,143145301658235
0,142432987603049
0,141756377320338
0,141117383155716
0,140513334992685
0,139938192940242
0,139384093239417
0,138843071953894
0,138308792298361
0,137778097818908
0,137252225637642
0,136737540892608
0,136245693348971
0,13579314685667
0,135400087889143
0,135088776291321
0,134881454816752
0,134797979451725
0,134853365858694
0,135055465332437
0,135402984442898
0,135884045362078
0,136475449528485
0,13714275795223
0,137841240631723
0,138517679726862
0,139112941560695
0,139565166780999
0,139813371506499
0,139801209931024
0,139480624546216
0,138815106507297
0,137782306721931
0,136375777359394
0,13460568128334
0,132498379491136
0,130094888761289
0,127448287200411
0,124620227628822
0,121676791149064
0,118683969830956
0,115703103275099
0,112786605486711
0,10997430440915
0,107290677050886
0,104743200836819
0,102321960983963
0,100000560255852
0,097738278495365
0,0954833325901147
0,0931770006680608
0,0907583044875594
0,0881688970296161
0,085357782385994
0,0822855042551421
0,0789274774179022
0,0752762009098754
0,0713421774411435
0,0671534643120545
0,0627538887370312
0,0582000664207286
0,053557457856513
0,0488957741940895
0,0442840971235463
0,0397861005406069
0,0354557535331311
0,0313338449541436
0,027445602457816
0,0237995888210057
0,0203879529683191
0,0171880010799409
0,0141649438566731
0,0112755785963043
0,00847258750381603
0,00570908316614968
0,00294301275755902
0,000141046029461474
-0,00271838261703421
-0,00564313444267344
-0,00862669055381239
-0,0116487928101174
-0,0146773413072421
-0,0176713806363586
-0,0205849140026553
-0,0233712137369331
-0,0259872547090238
-0,0283978872360737
-0,0305793889901628
-0,0325220890567972
-0,0342318369239296
-0,0357301877870864
-0,0370532845597338
-0,038249526916656
-0,0393762191305523
-0,0404954727407217
-0,0416697001485568
-0,0429570661758113
-0,0444072641275894
-0,0460579514233293
-0,0479321205307705
-0,0500365992571258
-0,0523617778162354
-0,0548825570429381
-0,0575604116703342
-0,0603463733252152
-0,0631846673161584
-0,0660166911067554
-0,0687850040629065
-0,0714370085969822
-0,0739280406246397
-0,0762236483554824
-0,078300916909818
-0,0801487847709654
-0,0817673885218009
-0,083166556603421
-0,0843636435507875
-0,0853809472612811
-0,0862429791764062
-0,0869738588084482
-0,0875950802433525
-0,0881238517683569
-0,0885721453136478
-0,0889465162583437
-0,0892486736080932
-0,089476703233338
-0,0896267800344023
-0,0896951548335953
-0,0896801731924863
-0,0895840789154899
-0,0894143752261906
-0,0891845596765535
-0,0889141108710112
-0,0886276803466405
-0,088353524489871
-0,0881212915503636
-0,0879593500393169
-0,0878919001860687
-0,0879361441024257
-0,0880997991998532
-0,088379221715267
-0,0887583638537248
-0,08920872228661
-0,0896903529054374
-0,0901539338330119
-0,090543763804196
-0,0908014946118445
-0,0908703224368364
-0,0906993105439569
-0,0902474902912504
-0,0894873916855253
-0,0884076893146033
-0,0870147122165112
-0,0853326524536225
-0,083402409996762
-0,0812791225648549
-0,0790285389889728
-0,076722494018105
-0,074433822576431
-0,0722311050469868
-0,0701736571612113
-0,0683071660149851
-0,0666603280659238
-0,065242768998905
-0,0640444250303136
-0,0630364487166057
-0,0621735792330755
-0,0613977977299327
-0,060642982832217
-0,0598401986562025
-0,0589231950052237
-0,0578336813096322
-0,0565259540960076
-0,0549705109140077
-0,0531563673170652
-0,0510919006798111
-0,0488041662833196
-0,0463367569204688
-0,0437463966062261
-0,0410985617327591
-0,0384625005332031
-0,0359060675503271
-0,0334908002207431
-0,0312676390244234
-0,0292736333517252
-0,02752988761059
-0,0260408938632742
-0,024795277835161
-0,0237678648106631
-0,0229228609776267
-0,0222178535820612
-0,0216082674819264
-0,021051881617903
-0,0205130091168049
-0,0199659787196206
-0,0193976196940583
-0,0188085414365279
-0,018213104698389
-0,017638094588453
-0,0171202164915185
-0,0167026354744333
-0,0164308593782524
-0,0163483192452088
-0,0164920238916656
-0,0168886568807001
-0,0175514450806983
-0,0184780621856194
-0,0196497439359035
-0,0210316918269134
-0,0225747373087101
-0,024218137521985
-0,0258932846774382
-0,0275280412273194
-0,0290513672903565
-0,0303978885154605
-0,0315120625480564
-0,0323516390354262
-0,0328901680417123
-0,0331183895032636
-0,0330444252363036
-0,0326927876800999
-0,0321023085545717
-0,0313231689936311
-0,03041327463288
-0,0294342601824076
-0,0284474256669759
-0,0275099001268501
-0,026671299476795
-0,025971096512993
-0,0254368572864776
-0,0250834248342515
-0,0249130547556058
-0,0249164335506765
-0,0250744457884053
-0,0253605049160221
-0,0257432284526523
-0,0261892235534395
-0,0266657538924217
-0,0271430823644991
-0,027596323554291
-0,0280066913786558
-0,0283620860536661
-0,0286570252915329
-0,02889198222515
-0,0290722421186122
-0,0292064274639584
-0,0293048637130125
-0,0293779640557163
-0,0294348012956592
-0,0294820092554971
-0,0295231179281116
-0,0295583794371199
-0,0295850901549434
-0,0295983628283284
-0,0295922559128434
-0,0295611297646723
-0,0295010742593499
-0,0294112420820418
-0,0292949273749012
-0,0291602502204521
-0,0290203418612521
-0,0288929706629165
-0,028799600726655
-0,0287639292392643
-0,0288100003347486
-0,0289600378390744
-0,0292321727077668
-0,0296382600861367
-0,0301819837146813
-0,0308574312351302
-0,031648293582432
-0,0325277972300124
-0,0334594229399986
-0,0343984031671615
-0,0352939273009149
-0,0360919246242003
-0,0367382441694652
-0,0371820128708318
-0,0373789319056609
-0,0372942679899084
-0,0369053122773804
-0,0362031135567233
-0,0351933422854499
-0,0338962040047013
-0,0323453901554083
-0,0305861259142532
-0,0286724427954333
-0,0266638630112399
-0,024621728201669
-0,0226054333884701
-0,0206688354987059
-0,0188570936899856
-0,0172041667951251
-0,0157311438587304
-0,0144455207675548
-0,0133414642647589
-0,0124010298262743
-0,0115962278625855
-0,0108917691634843
-0,0102482704739771
-0,00962566846056484
-0,00898657765998825
-0,0082993361571696
-0,0075405109345906
-0,00669668064864587
-0,00576537316531202
-0,00475510359566736
-0,00368453019581998
-0,00258081450000357
-0,00147733291247112
-0,000410934892818272
0,000581025830927063
0,00146364810480859
0,00220719631181489
0,00278936293548518
0,003196915558303
0,00342661662045842
0,00348536518589177
0,00338957310186068
0,00316384803952068
0,00283910811963206
0,00245029312276953
0,00203386275029061
0,00162528149202797
0,00125668225342139
0,000954878277353246
0,000739857588637106
0,000623849689156234
0,000611004657893262
0,000697674545506647
0,000873240220613039
0,00112138735521282
0,00142170595368452
0,00175147061514781
0,00208745435205088
0,00240763685295528
0,00269268714634667
0,0029271283629142
0,00310012577069641
0,00320587519181046
0,00324360401557382
0,00321722826872722
0,00313473408973018
0,00300736869581992
0,0028487335622589
0,00267387098590887
0,00249842520282525
0,0023379422595693
0,00220735089322751
0,00212064214050119
0,00209074073100966
0,00212953891591634
0,00224804530721902
0,00245658915199492
0,00276501524450746
0,00318280673927781
0,00371908214524686
0,00438242782802691
0,00518054695599719
0,00611972815131231
0,00720416006840798
0,00843513957657926
0,00981023915491969
0,0113225117688802
0,0129598175763521
0,0147043555003681
0,0165324738206077
0,0184148178843807
0,0203168508532945
0,0221997566277781
0,0240217047091147
0,02573942703616
0,0273100291441568
0,0286929346642947
0,029851845272006
0,0307565893655196
0,0313847330858504
0,0317228371964436
0,0317672624890335
0,0315244537080208
0,0310106657241649
0,0302511334984545
0,0292787265017174
0,0281321657239776
0,0268539142579795
0,0254878779930292
0,0240770689819526
0,0226613890340782
0,0212756843448424
0,0199482037194787
0,0186995643513187
0,0175422921725596
0,0164809612556093
0,0155129118365222
0,0146294827680872
0,0138176550455782
0,0130619716498525
0,0123465778735082
0,0116572173194344
0,0109830226736464
0,010317956944592
0,00966178885263605
0,0090205232809289
0,00840625120773946
0,00783642989808766
0,00733264965752146
0,00691898453988238
0,00662005783202556
0,00645897628896161
0,00645529821322499
0,00662319873995697
0,00696998133707912
0,00749505875089427
0,00818949150953019
0,00903613039838011
0,010010364289429
0,0110814297463627
0,0122141973064766
0,0133713142620591
0,0145155576000271
0,0156122352444782
0,0166314697984378
0,0175502066377582
0,0183538066897503
0,0190371120011616
0,0196049071256054
0,0200717389201128
0,0204610987519416
0,0208040116330198
0,021137113831994
0,021500331817765
0,0219342992221113
0,0224776636574905
0,0231644410889919
0,0240215720454954
0,0250668217793445
0,0263071465803508
0,0277376221857637
0,0293409992593086
0,0310879170239957
0,0329377711708535
0,0348401978963466
0,0367371040158602
0,038565145001666
0,0402585297489524
0,0417520138470012
0,0429839328356919
0,0438991237847808
0,0444515876978285
0,044606756585945
0,0443432471728103
0,0436540073978163
0,0425467912196194
0,0410439304679336
0,0391814081698436
0,0370072742239326
0,0345794796627617
0,031963238128217
0,0292280506786346
0,0264445508733864
0,0236813397148811
0,0210019833088382
0,0184623393566444
0,016108361742914
0,013974506064219
0,01208282420351
0,0104427948335095
0,00905189145636203
0,00789684307802838
0,00695549797068847
0,00619916127468075
0,0055952453641399
0,00511005039098692
0,00471148307311599
0,00437152559739541
0,00406828354436114
0,00378747109965473
0,00352323164518303
0,00327823942655395
0,00306308001727876
0,00289496000083985
0,00279584574439491
0,00279017365391986
0,00290230659328814
0,0031539307248767
0,00356159228175224
0,00413456424306256
0,00487320916508898
0,00576796828481673
0,00679906113758392
0,00793692779515428
0,00914339137440721
0,0103734658243834
0,0115776871306962
0,0127048085060906
0,0137046746119533
0,0145310781919602
0,0151444054083424
0,0155138932123775
0,0156193517486338
0,0154522445955561
0,0150160663767447
0,0143260072335537
0,0134079429959779
0,0122968348984266
0,0110346601143028
0,00966802165848758
0,00824560164805621
0,00681562483621237
0,00542349007145348
0,00410970717167664
0,00290824772908819
0,00184538329023788
0,000939046218866401
0,000198710506361927
-0,000374245234758856
-0,000785759840526775
-0,00104798601841267
-0,00117796387955879
-0,00119617887360052
-0,00112510747953292
-0,000987842705244612
-0,000806874479798908
-0,000603079379530912
-0,000394951983458844
-0,000198088556170581
-2,49145188254722E-05
0,000115368349594005
0,000216649983362227
0,000275636455456043
0,000291473301754833
0,000265307827214207
0,000199825123990151
9,87854784382278E-05
-3,34166783035356E-05
-0,00019215905005725
-0,000372955255843203
-0,000571771997853318
-0,000785297118168614
-0,00101115594814016
-0,00124807208700248
-0,00149596707993153
-0,00175599219776609
-0,00203048541997448
-0,00232284832701153
-0,00263734119602523
-0,00297880007847171
-0,00335228659425782
-0,00376268885905288
-0,00421429940081427
-0,00471040204560782
-0,00525290353581512
-0,00584204622410471
-0,00647623503534716
-0,00715200487118071
-0,00786414408377241
-0,00860597633535187
-0,00936978828663972
-0,0101473755627057
-0,0109306659379792
-0,0117123682033486
-0,0124865890640777
-0,0132493596021835
-0,0139990177590982
-0,0147364037817076
-0,0154648408797506
-0,0161898921381917
-0,0169189052869338
-0,0176603772311462
-0,0184231882322029
-0,0192157693836781
-0,0200452750170503
-0,020916832889217
-0,0218329391343998
-0,0227930523872093
-0,0237934233280375
-0,0248271738627253
-0,0258846164205344
-0,0269537808207192
-0,0280210962360891
-0,029072161089622
-0,030092525910336
-0,0310684141887345
-0,0319873142804502
-0,0328383907043777
-0,0336126842924808
-0,0343030954121541
-0,0349041702945362
-0,0354117345499287
-0,0358224375026903
-0,0361332837111409
-0,0363412322242828
-0,0364429389230865
-0,0364347027932515
-0,0363126542897651
-0,0360731950835798
-0,0357136662349238
-0,0352331894599073
-0,0346335971516502
-0,0339203444716965
-0,0331032839795988
-0,0321971819251396
-0,03122186647292
-0,0302019215412926
-0,0291658742017076
-0,0281448661221361
-0,0271708468465339
-0,0262743746440384
-0,0254821548026576
-0,0248144813112692
-0,0242827721193555
-0,0238873977745335
-0,0236159965822095
-0,0234424463136336
-0,0233266241394842
-0,0232150355428014
-0,0230423332739558
-0,0227336836546158
-0,0222078748571341
-0,0213810053238322
-0,0201705449404899
-0,0184995307175434
-0,0163006451384214
-0,0135199300697802
-0,0101199117322373
-0,00608195068797468
-0,00140768180296543
0,00388053166727222
0,00974014323472147
0,0161099202640896
0,0229122914826388
0,0300563996861409
0,03744168396246
0,0449618000600271
0,0525086866044513
0,0599765973475993
0,0672659429399415
0,074286816397831
0,0809621105484939
0,0872301692842498
0,0930469438647649
0,0983876479464425
0,10324791876577
0,107644496467293
0,111615429738328
0,11521980564873
0,118536987776538
0,121665332784006
0,124720345202841
0,127832226630342
0,131142781455339
0,13480165823674
0,138961934243413
0,143775089378381
0,14938546232377
0,155924332674476
0,163503823625789
0,172210865561151
0,182101496729305
0,193195798721554
0,205473768137081
0,218872409463579
0,233284297108007
0,248557797682937
0,264499069675062
0,280875870590154
0,297423106800314
0,313849964666814
0,329848369402264
0,3451024367969
0,359298517936659
0,372135392984385
0,383334150191687
0,39264729226109
0,399866643984658
0,404829691154656
0,40742405793181
0,407589923792007
0,405320286454554
0,400659087829227
0,393697329720031
0,384567408634299
0,373435988828844
0,360495804735713
0,345956834170602
0,330037309496068
0,312955033763761
0,294919442784822
0,276124803460716
0,256744866309974
0,236929199911939
0,216801332006785
0,196458712089148
0,175974399910904
0,155400279949162
0,134771510034831
0,114111838839992
0,0934393767243793
0,0727723811675402
0,0521346236891521
0,0315599399560563
0,0110956269234137
-0,00919556337301693
-0,0292349798755479
-0,0489292099370926
-0,0681727116275862
-0,0868517419144029
-0,104849283171398
-0,122050593525914
-0,138348957435174
-0,153651195830211
-0,167882512023974
-0,180990299547312
-0,192946617683148
-0,203749143757813
-0,213420530232494
-0,222006219843043
-0,229570893343702
-0,236193831825102
-0,241963560139575
-0,246972192491724
-0,251309921049815
-0,255060071666694
-0,258295098767635
-0,261073808486072
-0,263439992212113
-0,265422530955719
-0,267036904756748
-0,268287921612743
-0,269173377332927
-0,269688280203623
-0,269829228972349
-0,269598523214292
-0,26900761228463
-0,268079550249564
-0,266850213917407
-0,265368151432729
-0,263693050159369
-0,261892934237544
-0,260040313774558
-0,258207599658807
-0,256462162784498
-0,25486144884893
-0,25344855746831
-0,252248657849518
-0,251266546215403
-0,250485558749866
-0,249867946038206
-0,249356700111843
-0,248878712873254
-0,248349044054712
-0,247675995844446
-0,246766635950286
-0,245532384842172
-0,243894287346226
-0,241787622212987
-0,239165561953354
-0,236001673408317
-0,232291140118895
-0,22805068282999
-0,223317246615217
-0,218145605061124
-0,212605097807804
-0,206775763306796
-0,20074415163178
-0,19459910229158
-0,18842775087917
-0,182311989316168
-0,176325551966839
-0,170531839301966
-0,164982527682542
-0,159716953526316
-0,154762207290236
-0,150133830922971
-0,145836984053887
-0,141867930109833
-0,138215693377536
-0,134863750121451
-0,131791638678252
-0,128976401764824
-0,12639380561056
-0,124019311574132
-0,121828803661582
-0,119799097503575
-0,117908271400746
-0,116135867413261
-0,114463010446488
-0,112872486955977
-0,111348813901314
-0,109878314962465
-0,108449206925575
-0,107051686567599
-0,10567799895804
-0,104322463023883
-0,102981429990583
-0,101653154810363
-0,10033756918764
-0,099035956091381
-0,0977505381443104
-0,0964840042930899
-0,0952390090585068
-0,0940176850309663
-0,0928212111575635
-0,091649476293061
-0,0905008696268742
-0,0893722176354543
-0,0882588724017584
-0,087154940062897
-0,0860536226204708
-0,0849476331763152
-0,0838296354787658
-0,0826926547150919
-0,0815304084939862
-0,0803375150249749
-0,0791095490406948
-0,07784293385036
-0,0765346783133334
-0,0751819884046581
-0,0737818021254088
-0,0723303116058516
-0,0708225454047062
-0,0692520858328659
-0,0676109898468647
-0,0658899676929958
-0,064078851885001
-0,0621673618697804
-0,0601461391560362
-0,0580079964848041
-0,0557492957948002
-0,0533713461831359
-0,0508816974154805
-0,04829519880022
-0,0456346986419605
-0,0429312763005735
-0,0402239263657366
-0,0375586508829982
-0,0349869583301755
-0,0325638138805697
-0,0303451307087506
-0,0283849329387255
-0,02673235375722
-0,0254286542371652
-0,02450445736645
-0,0239773865211498
-0,0238502781619407
-0,0241101060350303
-0,0247277108727822
-0,0256583786563196
-0,0268432557195627
-0,0282115344558538
-0,0296832932352334
-0,0311728321014796
-0,0325923149703044
-0,033855511544683
-0,0348814290793519
-0,0355976353802068
-0,0359430987857867
-0,0358704061475796
-0,035347262983044
-0,0343572275122981
-0,0328996784719305
-0,0309890618619282
-0,0286535009272047
-0,0259328842528233
-0,0228765672115604
-0,0195408315121322
-0,015986246527065
-0,0122750656376039
-0,00846877287806605
-0,00462587208004551
-0,000799985080612515
0,00296170009429352
0,00661961360106942
0,0101426227520938
0,013508502167353
0,0167040808750377
0,0197250963467058
0,0225757856373124
0,0252682413495821
0,0278215566530673
0,0302607806907815
0,0326157047462389
0,0349195014954305
0,0372072448860806
0,0395143464431441
0,0418749541985654
0,044320371602113
0,0468775639184659
0,0495678268443866
0,0524056945973253
0,0553981610641706
0,0585442768939369
0,0618351675124046
0,0652544926344342
0,068779338439649
0,0723815014260674
0,076029090834543
0,0796883475274915
0,0833255543656993
0,0869088991711208
0,0904101483507197
0,0938059983339399
0,0970789932127779
0,10021792923846
0,103217707891338
0,106078645863706
0,108805298537532
0,111404899068755
0,113885553710508
0,116254361649445
0,118515641338861
0,120669443217731
0,122710510259753
0,124627814002448
0,126404746941803
0,128019996164888
0,129449062465508
0,13066632921739
0,131647531285802
0,132372431243854
0,13282748224368
0,133008246967323
0,132921351539263
0,132585781788186
0,132033374830675
0,13130841808581
0,130466335769947
0,129571514087078
0,128694384817452
0,127907947079773
0,127283953669673
0,126889017658296
0,126780904431842
0,127005263322548
0,127593022417054
0,128558622620184
0,129899206635996
0,131594810185133
0,133609532111273
0,135893592665248
0,13838613043137
0,141018542419629
0,143718141946852
0,146411896767665
0,149030015644682
0,1515091738626
0,153795204430627
0,155845128255669
0,157628449091593
0,159127693062307
0,160338223654016
0,161267407494171
0,16193324102455
0,162362571447707
0,162589056351715
0,162651005563119
0,16258923744299
0,162445062180016
0,162258479328986
0,162066648770271
0,161902666242538
0,161794649049452
0,161765116387937
0,161830633196656
0,16200167696774
0,162282683426385
0,162672228568713
0,163163310055716
0,163743698957649
0,164396341834706
0,165099801763769
0,165828734122886
0,166554397979704
0,167245206506259
0,167867320026033
0,168385283467021
0,168762706762543
0,168962982803505
0,168950033575563
0,168689071684691
0,168147361946164
0,167294966218047
0,166105454157138
0,164556562797475
0,16263078847802
0,160315895340089
0,157605325116548
0,154498493140183
0,15100095552466
0,147124432604579
0,142886674463308
0,138311156295578
0,133426595031048
0,128266284544016
0,122867255114769
0,117269273472949
0,111513712239072
0,105642330968091
0,0996960240061629
0,0937136014719681
0,0877306772186888
0,0817787400786328
0,0758844807834805
0,0700694359327404
0,0643499921533689
0,0587377688388019
0,0532403680388237
0,047862447431403
0,0426070396546736
0,0374770117993217
0,0324765358163983
0,0276124269766412
0,0228952056982549
0,0183397495270353
0,0139654270984432
0,00979564356581629
0,0058567749088787
0,00217652323935446
-0,00121821782023364
-0,00430384447781621
-0,00706268159830077
-0,00948555678180288
-0,0115740715695881
-0,0133423357055968
-0,0148179554936606
-0,0160421128125933
-0,0170686346276806
-0,0179620294934308
-0,018794551675349
-0,0196424382325511
-0,0205815423400136
-0,0216826501483651
-0,0230068123153616
-0,0246010401913974
-0,026494707690105
-0,0286969626078712
-0,031195387511051
-0,0339560645615008
-0,0369250971701757
-0,0400315320274953
-0,0431915166979294
-0,0463134295199717
-0,0493036383877941
-0,0520724900598492
-0,054540106929478
-0,0566415762169722
-0,0583311571000134
-0,0595852014760351
-0,0604035784086718
-0,0608095034049842
-0,0608477925806565
-0,0605816789772891
-0,060088434371589
-0,0594541264367745
-0,0587679012896654
-0,058116210726618
-0,0575773998648107
-0,0572170352147548
-0,0570842888247889
-0,0572096067170174
-0,0576037868711791
-0,0582584820570519
-0,0591480348199378
-0,0602324544370082
-0,0614612661165608
-0,0627779068889793
-0,0641243141400434
-0,0654453528728447
-0,0666927554332387
-0,0678282993035442
-0,0688260195328147
-0,0696733359453161
-0,0703710642690154
-0,0709323674409474
-0,0713807817825488
-0,0717475167614646
-0,0720682723882446
-0,0723798424200687
-0,0727167737704583
-0,0731083339954812
-0,0735760021424171
-0,0741316475999988
-0,0747765016957443
-0,075500962873844
-0,0762852135141833
-0,0771005694743867
-0,0779114361212698
-0,0786777097094438
-0,0793574420648335
-0,0799095799577511
-0,0802965975538323
-0,0804868591503411
-0,0804565776051759
-0,0801912685525901
-0,0796866386125502
-0,0789488844154516
-0,07799441572819
-0,0768490481633705
-0,0755467373078341
-0,0741279456829513
-0,072637746394543
-0,0711237728117627
-0,0696341227113619
-0,0682153189186826
-0,0669104176193294
-0,0657573413303349
-0,0647874971078899
-0,064024722953081
-0,0634845874754819
-0,0631740504526849
-0,0630914756705198
-0,063226972867441
-0,0635630332164418
-0,0640754129193958
-0,064734212438848
-0,0655050948481689
-0,0663505857799003
-0,0672313994421905
-0,0681077398812845
-0,0689405336996137
-0,0696925591861079
-0,0703294465587978
-0,0708205339263329
-0,0711395727877246
-0,0712652846136087
-0,0711817756159577
-0,0708788198005521
-0,0703520206539621
-0,0696028595473307
-0,0686386346709734
-0,0674722888799174
-0,0661221192848801
-0,0646113569372638
-0,062967602661257
-0,0612221059507583
-0,0594088785160101
-0,0575636427381571
-0,0557226276677043
-0,0539212404345301
-0,0521926576882591
-0,0505663982078047
-0,0490669521487437
-0,0477125525098667
-0,0465141784989667
-0,0454748771505187
-0,0445894780368534
-0,0438447562108057
-0,0432200714767481
-0,0426884794134893
-0,0422182737015792
-0,0417748832586044
-0,04132301476159
-0,0408289046181758
-0,0402625273004235
-0,0395996014333522
-0,0388232424675846
-0,037925131348595
-0,0369061012665844
-0,0357760870768932
-0,0345534310159585
-0,0332635897882373
-0,0319373374526166
-0,0306086012452755
-0,0293120994385747
-0,0280809683044573
-0,0269445671627929
-0,0259266357562515
-0,025043947746771
-0,0243055604497491
-0,0237127078035183
-0,0232593258078015
-0,022933142604015
-0,0227172144158603
-0,0225917486366006
-0,0225360303998304
-0,0225302615795986
-0,0225571322340468
-0,0226029731857637
-0,0226583820954204
-0,0227182699351908
-0,0227813349716982
-0,0228490313290561
-0,0229241530285293
-0,0230091966491567
-0,0231046921086204
-0,0232076986899464
-0,0233106512954155
-0,0234007109330849
-0,0234597263715131
-0,0234648551316231
-0,0233898270958642
-0,0232067692135358
-0,0228884513763802
-0,0224107672213823
-0,0217552339887358
-0,0209112856329103
-0,0198781442748767
-0,0186660859443457
-0,0172969646139552
-0,0158039193649406
-0,014230257535171
-0,0126275756050361
-0,0110532430556399
-0,00956742672444405
-0,00822986964567231
-0,00709665589345652
-0,00621719028536795
-0,00563159961023448
-0,00536872279555166
-0,00544480518457257
-0,00586295199729636
-0,00661333390498684
-0,00767407922759137
-0,0090127378332259
-0,0105881655920834
-0,012352657973539
-0,0142541582151669
-0,0162383787967765
-0,018250702521096
-0,0202377677707606
-0,0221486869858385
-0,0239358931592658
-0,0255556512971735
-0,0269683060487567
-0,0281383597517922
-0,0290344849571355
-0,0296295715425665
-0,0299008917280587
-0,0298304389574602
-0,0294054620284163
-0,0286191780995096
-0,0274716115577053
-0,0259704743015073
-0,0241319803025933
-0,0219814758858168
-0,0195537684192365
-0,0168930501053144
-0,014052339134239
-0,0110923953153756
-0,00808010826412706
-0,00508639959762435
-0,00218372249903841
0,000556721237570088
0,00306789812637288
0,00528982756828726
0,00717226212760965
0,00867699835544456
0,00977967163091342
0,0104709173724838
0,0107568178378318
0,0106585958188239
0,010211560853069
0,00946335714636005
0,00847160248115587
0,00730104164745242
0,00602036456855329
0,00469885707735433
0,00340306060414174
0,00219361576518107
0,00112245439086277
0,000230485682192346
-0,000454103978719603
-0,00091685018670119
-0,00115725790564069
-0,00118828585777301
-0,00103509728534214
-0,00073314634453722
-0,00032570664579864
0,000139018863277262
0,000611041268261335
0,00104179896219608
0,00138724932822638
0,00161065015008993
0,00168485647567363
0,00159398460429622
0,00133433154646154
0,000914484030834367
0,000354603434241811
-0,000315071359747567
-0,00105640601668004
-0,00182608998686174
-0,00257870332354716
-0,00326991206108183
-0,00385955918040964
-0,0043144216840101
-0,00461042585767602
-0,00473415158161728
-0,00468351015780233
-0,00446754473527641
-0,0041053730492253
-0,00362436302653221
-0,00305769675509132
-0,00244153145384894
-0,00181200232179614
-0,00120232766802462
-0,000640269439954125
-0,000146172095370124
0,000268248299373174
0,000600260772787904
0,000855597000070673
0,00104710788049333
0,00119273689043102
0,00131301640927078
0,00142834368484851
0,00155632023469288
0,00170943891387024
0,00189337564920118
0,00210608960442897
0,00233786045502878
0,00257230090587441
0,00278828468717707
0,00296263407410155
0,00307332577145752
0,00310290832327783
0,0030417850904425
0,00289100906976492
0,00266426144081176
0,0023887437092757
0,00210479960897887
0,00186419072509894
0,00172707005255205
0,00175781994361836
0,00202003409695412
0,00257101684153535
0,00345623787227811
0,00470420995228473
0,00632224709413499
0,00829351089573992
0,01057566608892
0,0131013493392904
0,0157805170589723
0,0185045897076275
0,0211521640586022
0,0235959335430388
0,0257103513580816
0,0273795007601426
0,0285046082446879
0,0290106510429039
0,0288515697327743
0,0280136952763636
0,0265171296573673
0,0244149700604587
0,0217904260321364
0,0187520343896059
0,0154273153225847
0,0119553241312791
0,00847862772272228
0,00513526781710125
0,00205126179029675
-0,000665861143176451
-0,0029320809874676
-0,00469017710910223
-0,00591113722726076
-0,00659367994958172
-0,00676202561357012
-0,00646217418778652
-0,00575704743886131
-0,00472091840430287
-0,00343358036140031
-0,00197469910745851
-0,000418748831369051
0,0011691415670913
0,0027362005672692
0,00424376218280641
0,00566773980061944
0,00699792069280925
0,00823626624115197
0,00939447067900606
0,0104910719750199
0,0115484203389833
0,0125897933924999
0,0136369055345982
0,0147079977701813
0,0158166201522079
0,0169711397389141
0,0181749304160643
0,0194271342677669
0,0207238332919624
0,022059439258146
0,0234281003933016
0,0248249361336192
0,0262469430685722
0,0276934622846427
0,0291661551058849
0,0306684944813022
0,0322048366050569
0,0337791858975229
0,0353938014256084
0,0370478108853431
0,0387359979343148
0,0404479103493331
0,0421674024444704
0,0438726792368457
0,0455368569503862
0,0471290002487542
0,0486155467488109
0,0499619891128789
0,0511346584987329
0,0521024431161212
0,0528382831470988
0,0533203075462309
0,0535325167948032
0,0534649645432395
0,0531134452149163
0,0524787484222916
0,0515655888155811
0,0503813566451651
0,0489348558228684
0,0472352000578181
0,0452910228981439
0,0431101252862806
0,040699637358649
0,038066714058561
0,0352197221930953
0,0321698159619315
0,0289327448851992
0,0255306980493193
0,021993966163202
0,0183622009896165
0,0146850713474653
0,0110221550920088
0,00744196435718714
0,00402007222974247
0,000836386931232062
-0,00202830226670037
-0,00449631176046058
-0,00649732920763745
-0,00797266489155838
-0,0088791791620408
-0,00919258444747217
-0,0089098532427295
-0,00805051889371147
-0,00665672977922834
-0,0047920038724083
-0,00253872280667548
5,50488789509614E-06
0,0027324000216963
0,00552821074623015
0,00827922881541496
0,0108772788582444
0,0132248392226899
0,0152394817195514
0,0168573687353308
0,0180356153358011
0,0187534054545496
0,0190118384993547
0,0188325688687156
0,0182553794340134
0,0173348952556124
0,0161366912287298
0,014733074115244
0,0131988244013039
0,0116071673079988
0,0100262073942951
0,00851601124738559
0,00712646249172966
0,00589594808676218
0,00485087005432928
0,00400591748982966
0,00336498431880797
0,00292258206465054
0,00266557591831634
0,00257506728659187
0,00262825602748737
0,00280013882807094
0,00306493369251543
0,00339716065049681
0,00377235157087332
0,00416740335501798
0,00456062512568079
0,00493155826422209
0,00526066610359524
0,0055289965751547
0,00571791604651632
0,00580899692183373
0,00578411718740298
0,00562579962767723
0,00531778503996947
0,00484580081909462
0,00419845706770149
0,00336817985850631
0,00235207776296748
0,00115263479008913
-0,000221868991309812
-0,00175728909424535
-0,00343395247154566
-0,0052274146582212
-0,00710961650177078
-0,00905037960650189
-0,0110191436595236
-0,0129868195239682
-0,0149276123976798
-0,0168206617099734
-0,0186513500555553
-0,0204121525406548
-0,0221029294354511
-0,0237306068744514
-0,025308239384202
-0,0268535003584092
-0,0283866978989735
-0,029928459214897
-0,0314972628602898
-0,0331070209495429
-0,0347649205352517
-0,0364697232557231
-0,0382106951908838
-0,0399672961112777
-0,0417097018058815
-0,0434001689708737
-0,0449951841149496
-0,0464482714871284
-0,0477132756176852
-0,0487478867299919
-0,0495171463057539
-0,0499966585107201
-0,0501752426417096
-0,0500567921898022
-0,0496611558628027
-0,0490239217016501
-0,0481950626868447
-0,047236485369267
-0,046218605905176
-0,0452161541696649
-0,0443034704612368
-0,0435496056396311
-0,0430135605300978
-0,0427400017811574
-0,0427557684981755
-0,0430674380972901
-0,0436601538089601
-0,0444978345018354
-0,045524795559707
-0,0466687137633166
-0,0478447761772943
-0,0489607694251651
-0,0499227973677095
-0,0506412669231594
-0,0510367570939331
-0,0510453870548054
-0,0506233255371318
-0,0497501341005419
-0,0484307079436346
-0,0466956650172365
-0,0446001316081389
-0,042220973836514
-0,0396526229731788
-0,0370017316756205
-0,0343809723595133
-0,0319023431963193
-0,02967037826416
-0,0277756643606233
-0,0262890477926008
-0,0252568716489337
-0,0246975207593735
-0,024599472169781
-0,0249209589532418
-0,0255912605191918
-0,0265135394482598
-0,0275690591373055
-0,0286225433531792
-0,0295283822935027
-0,0301373527313625
-0,0303035036312087
-0,0298908630744146
-0,0287796458557885
-0,0268716808712044
-0,0240948296755201
-0,0204062280086638
-0,015794246145751
-0,0102791273100703
-0,00391232228903236
0,00322541010641954
0,0110270249899159
0,0193631921113248
0,0280871098610194
0,0370399542285467
0,0460567787418861
0,0549726808852745
0,0636290529196807
0,0718797385241382
0,0795969198883319
0,086676562221527
0,0930432443053495
0,0986542057671274
0,103502445887766
0,107618717187553
0,111072272051376
0,113970244427446
0,116455582703099
0,118703494958686
0,120916423498274
0,123317630207701
0,1261435449663
0,129635101996937
0,134028358765627
0,139544753416148
0,146381404333209
0,154701884281808
0,164627907678524
0,176232350325592
0,189533975528676
0,204494170055475
0,221015900969346
0,238944994999063
0,258073722296342
0,278146543860656
0,298867764754244
0,319910731582414
0,340928129916388
0,361562881352108
0,381459114848725
0,400272694714196
0,417680827557953
0,433390339719386
0,447144309939955
0,45872685241761
0,467965964658941
0,474734473975652
0,478949227428265
0,480568764733619
0,479589785820332
0,47604276998779
0,469987119963442
0,461506191879336
0,450702533993588
0,437693597502101
0,422608108279836
0,405583206015215
0,38676237444134
0,366294110321706
0,344331215594569
0,321030551231093
0,296553065620687
0,271063905395779
0,244732431239029
0,217731992346849
0,190239356403399
0,162433741837565
0,134495450173449
0,106604143081257
0,0789368467571986
0,0516657921748877
0,024956211769007
-0,00103578895518344
-0,0261651811391938
-0,0502997045613369
-0,0733212537593186
-0,0951269430337041
-0,115629865661869
-0,134759587116188
-0,152462427515083
-0,168701593213689
-0,183457211074641
-0,196726302632278
-0,208522711470672
-0,218876969050852
-0,227836055965559
-0,235462991282997
-0,241836166120706
-0,247048331884978
-0,251205160623816
-0,254423315170945
-0,256827999201991
-0,258549999521217
-0,259722281154077
-0,260476245543785
-0,260937808268743
-0,26122349020959
-0,26143674052913
-0,261664717743986
-0,26197574452148
-0,262417622231932
-0,263016944098369
-0,263779484049995
-0,264691666626243
-0,265723047106775
-0,266829656688194
-0,267958001307872
-0,269049450458072
-0,270044718858523
-0,270888132526966
-0,271531383184265
-0,271936510674262
-0,272077909828599
-0,271943231824318
-0,271533134938143
-0,270859929062459
-0,269945245267357
-0,268816939046149
-0,267505497330716
-0,266040259781403
-0,26444578077741
-0,262738648454062
-0,26092504161259
-0,258999247021478
-0,256943283015386
-0,254727686378213
-0,2523134252827
-0,249654809036513
-0,246703182867949
-0,243411129598232
-0,23973685510982
-0,235648414681194
-0,231127444174992
-0,226172093275496
-0,220798914919835
-0,215043541355918
-0,208960066938402
-0,202619153871294
-0,196104972181068
-0,189511171896159
-0,182936157099704
-0,176477982779386
-0,170229222451996
-0,164272155532146
-0,158674598560942
-0,153486655901938
-0,148738597384355
-0,144439988099977
-0,140580105606741
-0,137129589112963
-0,134043180637926
-0,131263345877808
-0,128724507618057
-0,126357590625283
-0,124094565856593
-0,121872693578557
-0,119638197831783
-0,117349155311433
-0,114977445615989
-0,112509681574747
-0,109947112303272
-0,107304562158699
-0,104608530857962
-0,101894629606293
-0,0992045623001581
-0,0965828782198389
-0,0940737230170349
-0,0917177994582749
-0,0895497206132973
-0,0875958991609539
-0,0858730708806648
-0,0843875020561299
-0,0831348830971721
-0,0821008674297583
-0,08126217816103
-0,0805881769656164
-0,0800427709774721
-0,0795865243008555
-0,079178840472002
-0,0787800896385432
-0,0783535678539398
-0,0778671939953019
-0,0772948707297699
-0,0766174581234957
-0,0758233306510022
-0,074908509553068
-0,0738763820706509
-0,0727370366853342
-0,0715062589635461
-0,0702042458818599
-0,0688541075879944
-0,0674802343437064
-0,0661066127281257
-0,0647551787433851
-0,0634442958740229
-0,0621874429354342
-0,0609921893220119
-0,0598595237279992
-0,0587835865379269
-0,057751836122085
-0,0567456558857135
-0,0557413831445
-0,0547117141436772
-0,0536274135286663
-0,0524592331942095
-0,0511799266294411
-0,0497662324118955
-0,0482006958776722
-0,046473202165271
-0,0445821071909809
-0,04253487529898
-0,040348162270358
-0,0380473182667148
-0,0356653247434362
-0,0332412195475464
-0,0308181022469158
-0,028440844180034
-0,0261536519908771
-0,0239976472794464
-0,0220086269643255
-0,0202151584327851
-0,018637140961046
-0,0172849316532134
-0,0161590926380044
-0,0152507695975111
-0,0145426635499461
-0,0140105120638696
-0,0136249565513822
-0,0133536423636984
-0,0131633807617351
-0,0130221981472659
-0,0129011087588507
-0,0127754716817895
-0,0126258296019058
-0,0124381723096554
-0,0122036187482731
-0,0119175631022737
-0,011578378581694
-0,0111858129604373
-0,0107392389514931
-0,0102359374786216
-0,00966959133794069
-0,00902915047563312
-0,00829819935316134
-0,0074549141048945
-0,00647264597669373
-0,00532111218648636
-0,00396812059182148
-0,00238170508024
-0,000532508705460701
0,00160377525043037
0,00404410552627179
0,0067961345858885
0,00985676464395892
0,0132113570883468
0,0168336869522186
0,0206866788452873
0,0247239021414865
0,028891745878837
0,0331321422691404
0,0373856658850534
0,0415948066132322
0,045707200359194
0,0496786030876039
0,0534754106699203
0,0570765576210591
0,0604746695946475
0,0636763941825286
0,0667018884015801
0,0695834953798165
0,0723636934695227
0,0750924450390366
0,0778241068966256
0,0806140878249306
0,0835154500578901
0,0865756505833239
0,0898336055576704
0,0933172382128415
0,0970416392935502
0,101007931522966
0,105202888283457
0,109599314090976
0,114157152903689
0,118825251984242
0,123543675798999
0,128246437776637
0,132864498781413
0,137328870591011
0,141573660808293
0,145538902371719
0,149173025691814
0,152434853558041
0,155295027151235
0,15773680426262
0,159756206417843
0,161361528109417
0,162572256734622
0,163417484106577
0,163933917656895
0,164163620040564
0,164151618480086
0,163943529040222
0,163583335801149
0,163111450929592
0,162563159814858
0,161967527222192
0,161346807724722
0,160716368795921
0,160085100294401
0,159456252108575
0,158828614667379
0,158197936743427
0,157558462807645
0,156904468853725
0,156231681114676
0,155538475787063
0,154826778465574
0,154102607688458
0,153376235649478
0,152661968439222
0,151977575853081
0,151343424793395
0,15078138892808
0,150313619389898
0,149961266349567
0,149743239320183
0,149675085675557
0,149768053205889
0,150028385079307
0,150456876014543
0,151048698542963
0,151793489575502
0,152675671469684
0,153674969442011
0,154767079089677
0,15592443414684
0,157117025160593
0,158313223940256
0,159480575568312
0,160586528481219
0,161599082614865
0,162487344930277
0,163221990007022
0,163775630261236
0,164123105389846
0,164241703785902
0,164111330027921
0,163714632397205
0,163037103065283
0,162067161495659
0,160796229047906
0,159218800010743
0,157332511476498
0,155138211662294
0,152640023475981
0,149845397280085
0,146765143915215
0,14341343615326
0,139807764021194
0,135968827139846
0,131920345747255
0,127688771878027
0,123302883725694
0,118793249950249
0,114191556862295
0,109529800090785
0,104839353256117
0,10014993878985
0,0954885394422215
0,0908783020640793
0,0863374965361724
0,0818786008476184
0,0775075868853563
0,0732234794131724
0,069018252210186
0,0648771102457022
0,060779185460766
0,0566986472950275
0,0526061991989304
0,0484709012187736
0,0442622288660475
0,0399522526026592
0,0355178029638908
0,0309424758367584
0,0262183323598489
0,02134715913444
0,0163411768627487
0,0112231180717628
0,00602563524224427
0,000790046595490872
-0,0044355254165197
-0,00959852199039821
-0,0146446810643043
-0,0195209633452314
-0,0241784797467708
-0,0285752232566222
-0,0326784173797765
-0,0364663166332265
-0,039929330559188
-0,0430703887594846
-0,0459045170897206
-0,0484576503735158
-0,0507647605729249
-0,0528674271729524
-0,0548110149881503
-0,0566416508069935
-0,0584032024125386
-0,0601344608235311
-0,0618667095484531
-0,0636218348042647
-0,0654110905394702
-0,0672345849645362
-0,0690815048183035
-0,0709310435873566
-0,0727539539831207
-0,0745146063127611
-0,0761734054405347
-0,0776894014215203
-0,079022923293013
-0,0801380716687869
-0,0810049226034878
-0,081601320841113
-0,0819141727185185
-0,0819401849898771
-0,0816860329773042
-0,081167977128665
-0,0804109790286364
-0,0794473943433722
-0,0783153398371877
-0,0770568438066443
-0,0757158939418674
-0,0743364941588122
-0,0729608332002457
-0,071627653920325
-0,0703708944930725
-0,0692186527270229
-0,0681925035996325
-0,0673071792978656
-0,0665706015432526
-0,0659842386356923
-0,0655437451220127
-0,0652398306658287
-0,0650592968193934
-0,064986175991184
-0,0650029059122813
-0,0650914751164879
-0,0652344801088811
-0,0654160426314737
-0,065622545357399
-0,065843155948969
-0,0660701221897973
-0,06629883422185
-0,0665276631653751
-0,0667575978817414
-0,0669917126913261
-0,0672345078527666
-0,0674911709898291
-0,0677668110004256
-0,0680657160679419
-0,0683906841679928
-0,0687424681375505
-0,0691193683729174
-0,0695169951914908
-0,0699282106547228
-0,0703432471269858
-0,0707499880093966
-0,0711343858557061
-0,0714809852338058
-0,0717735128199353
-0,0719954956217283
-0,0721308699144245
-0,0721645481649867
-0,0720829183038762
-0,0718742583904875
-0,0715290590210088
-0,0710402547407679
-0,0704033732685976
-0,0696166167086028
-0,0686808915507466
-0,0675998038892833
-0,0663796330289266
-0,0650292909363359
-0,0635602676232989
-0,0619865545005832
-0,0603245301893127
-0,0585927873693466
-0,056811876055854
-0,0550039390168232
-0,0531922193734138
-0,0514004287929959
-0,0496519766899407
-0,0479690756352485
-0,0463717544767597
-0,044876826952384
-0,0434968781062359
-0,0422393418887675
-0,0411057493797479
-0,0400912268982094
-0,0391843161086309
-0,0383671739328655
-0,0376161890987581
-0,0369030256163314
-0,0361960730589488
-0,0354622514203916
-0,0346690869993524
-0,0337869478273191
-0,0327913051310988
-0,0316648733728073
-0,0303994772395727
-0,0289975005442955
-0,027472789557397
-0,0258509111676319
-0,0241687029905838
-0,022473095868103
-0,0208192363094607
-0,0192679840598682
-0,0178829047554502
-0,0167269162135082
-0,0158587763485772
-0,0153296186138619
-0,0151797456293458
-0,015435882576258
-0,016109069282615
-0,0171933349622303
-0,0186652544336608
-0,0204844322527316
-0,0225949049663424
-0,0249273953933982
-0,0274023002256906
-0,0299332468546858
-0,0324310202018486
-0,034807637815813
-0,0369803430346127
-0,038875292125388
-0,0404307314886191
-0,0415994938197966
-0,042350685275925
-0,0426704862469533
-0,042562042895702
-0,0420444815915775
-0,0411511301628578
-0,039927075248506
-0,0384262211728775
-0,0367080405855013
-0,0348342193068699
-0,0328653969709088
-0,0308581915718273
-0,0288626711689631
-0,0269204017114256
-0,0250631587214136
-0,0233123452786976
-0,0216791124249526
-0,0201651337326737
-0,0187639461591901
-0,0174627367681171
-0,0162444313191294
-0,0150899272806697
-0,0139803110409903
-0,012898906790895
-0,0118330218946216
-0,0107752791174227
-0,00972445793944767
-0,00868580309523309
-0,00767079599437745
-0,00669642131339766
-0,0057839944394565
-0,00495764349241026
-0,00424256066501532
-0,00366315037852515
-0,00324120563230335
-0,0029942388845344
-0,0029340803902517
-0,00306583624843533
-0,00338727204678266
-0,00388865785319647
-0,00455307855864201
-0,00535718241291404
-0,00627231216208391
-0,0072659393757662
-0,00830330485198259
-0,0093491574689828
-0,0103694809992588
-0,0113331031578675
-0,0122130928846139
-0,0129878694684261
-0,0136419690793466
-0,0141664388358762
-0,01455885379519
-0,014822976369429
-0,0149680989784345
-0,0150081278791789
-0,0149604781200707
-0,0148448559581775
-0,0146820058376766
-0,0144924945875578
-0,0142955966834776
-0,0141083323178829
-0,0139446959174198
-0,0138150979268892
-0,0137260283769469
-0,0136799379869756
-0,0136753220937552
-0,0137069849697498
-0,0137664572131936
-0,0138425366612964
-0,0139219232326276
-0,0139899196431042
-0,0140311723285218
-0,0140304294883642
-0,0139732953308372
-0,0138469609601746
-0,013640892708698
-0,0133474581408757
-0,0129624687352135
-0,0124856168413501
-0,0119207835269768
-0,0112761939901247
-0,0105643989191833
-0,00980206398288155
-0,00900955578158314
-0,00821032108284652
-0,00743006671800798
-0,00669575955652464
-0,00603447871627254
-0,00547216460194062
-0,0050323204408711
-0,0047347305984997
-0,0045942651744861
-0,0046198414116737
-0,00481360885504538
-0,00517041684134114
-0,00567761005389378
-0,00631518119832259
-0,00705629030932612
-0,00786813908230812
-0,00871316734641046
-0,00955051889557447
-0,0103377068043173
-0,0110323953571554
-0,0115942078090476
-0,0119864669808066
-0,0121777793791071
-0,0121433828681978
-0,0118661922204888
-0,0113374951059581
-0,0105572718861486
-0,00953413445792811
-0,00828490076762317
-0,00683384099176514
-0,0052116474634427
-0,00345419220344289
-0,00160114277949913
0,000305491053570581
0,00222281065596517
0,00410841994363459
0,00592170399713603
0,00762495686756186
0,00918433449966963
0,010570622142392
0,011759817469487
0,0127335399175555
0,0134792828258115
0,013990527563878
0,0142667380623057
0,0143132505180476
0,0141410673233794
0,0137665575148901
0,013211059421365
0,0125003758750148
0,0116641494048161
0,0107351050454519
0,00974815227402049
0,00873934518088896
0,00774471093748055
0,00679897015769281
0,00593418767557856
0,00517840715021935
0,00455433612357029
0,00407815807787145
0,00375855317020865
0,00359600846929331
0,00358249091967077
0,00370154170122043
0,00392882951951246
0,00423317368077605
0,00457801717500959
0,00492329750879891
0,00522763114113345
0,00545069869626397
0,00555569521132156
0,00551169481965499
0,00529577428145011
0,00489474578343674
0,00430636677433423
0,00353992270975624
0,00261611598722753
0,00156623876282549
0,000430655760784227
-0,00074332787223083
-0,0019040928429096
-0,00299866636111809
-0,00397582856770695
-0,00478916005962791
-0,00539982421788928
-0,00577889158328589
-0,00590904170478157
-0,00578551902130219
-0,00541627066895049
-0,00482125194750927
-0,00403094525835679
-0,00308419601292588
-0,00202551979936575
-0,000902074876489238
0,000239480469677715
0,00135601723652138
0,00241063177223668
0,00337481427230029
0,00422993615929841
0,00496795568065139
0,00559130190940386
0,00611196133886905
0,00654985328527593
0,00693063534688388
0,00728312373484346
0,00763654184326416
0,00801782164105753
0,00844917545903692
0,00894613114257162
0,00951618345470201
0,0101581624337536
0,0108623595550763
0,01161139003747
0,0123817097055391
0,0131456524411871
0,0138738136942049
0,0145375800205447
0,0151115960552361
0,0155759691441121
0,0159180369697818
0,0161335624651369
0,0162272695190709
0,0162126880408457
0,0161113330704845
0,0159512950442804
0,0157653627391408
0,0155888333548714
0,0154571832887925
0,015403777338166
0,0154577836059019
0,0156424378085123
0,01597376662267
0,0164598385556716
0,0171005664546593
0,017888042115223
0,0188073441711099
0,0198377285889573
0,020954088854806
0,022128561515865
0,0233321522895663
0,024536267615443
0,0257140546287254
0,0268414767747742
0,0278980799971418
0,0288674329082491
0,0297372510454694
0,0304992381392577
0,0311486947457334
0,0316839557742811
0,0321057232148037
0,0324163591914175
0,0326191982876068
0,0327179281911657
0,032716075537908
0,0326166207998039
0,0324217534266395
0,0321327671631069
0,0317500861649839
0,0312734055088947
0,0307019248971635
0,0300346515665029
0,0292707472079117
0,0284098936986047
0,0274526532496403
0,0264007999612181
0,0252576016518522
0,0240280332342142
0,0227189060180917
0,0213389012978526
0,0198985015984383
0,0184098190001864
0,0168863269158156
0,0153425091397225
0,0137934473684734
0,0122543749348433
0,0107402293632219
0,00926523874283641
0,00784257613571765
0,00648411190267596
0,00520028590097787
0,00400011036254691
0,00289130072809111
0,00188051701237559
0,000973683894164928
0,0001763453420066
-0,000505999220079511
-0,00106763401464037
-0,00150249595909496
-0,00180421985672607
-0,00196639133638788
-0,00198301941697715
-0,00184921726803117
-0,00156205499793209
-0,00112152454027304
-0,000531536482139167
0,000199145664561027
0,00105613477166534
0,00201891144446734
0,00306066378250228
0,00414854077670377
0,00524435577437574
0,00630574219429565
0,00728772683058805
0,00814464984125114
0,00883232817722932
0,00931033378016775
0,00954424185292875
0,00950769955352827
0,00918417226642736
0,00856824279999945
0,00766636703357798
0,00649702539509243
0,00509025007214977
0,00348654967747725
0,0017352927143652
-0,000107354572312523
-0,00198081417330295
-0,00382266802722581
-0,00557127183176808
-0,00716827245119005
-0,00856090511131734
-0,00970396894420004
-0,0105614069935234
-0,0111074466972314
-0,0113272863145582
-0,0112173392107139
-0,0107850693441427
-0,0100484664312766
-0,00903521759431141
-0,00778163419410518
-0,00633138904673622
-0,00473411196129176
-0,00304388245439028
-0,00131764960683248
0,000386397856214966
0,00201049169879548
0,00349895432023748
0,00479985391099455
0,00586661129066399
0,0066595146199249
0,00714708734170261
0,00730724560257928
0,0071281761490328
0,00660886605794002
0,00575922300118611
0,0045997395834269
0,00316067738350079
0,00148077452002922
-0,000394487165056042
-0,00241498544447258
-0,00452832956670879
-0,00668237129474236
-0,0088277062304212
-0,0109200072979326
-0,0129220349799544
-0,0148051842982261
-0,0165504560969946
-0,0181487783263204
-0,0196006490429998
-0,0209151232021474
-0,0221082159092394
-0,0232008413238209
-0,0242164447227017
-0,0251785117872291
-0,0261081513445093
-0,0270219440850665
-0,0279302301384105
-0,0288359740742816
-0,0297342995746514
-0,030612731416532
-0,0314521240724894
-0,0322281991668034
-0,0329135631412454
-0,0334800362841951
-0,0339010983504458
-0,0341542467114853
-0,0342230712539912
-0,0340988754339659
-0,0337817128200999
-0,0332807596117083
-0,0326140014154638
-0,031807271822184
-0,0308927356702533
-0,0299069562676149
-0,0288887190562905
-0,0278768011889395
-0,0269078757169978
-0,0260147207134336
-0,0252248694372218
-0,0245597909236384
-0,0240346356657992
-0,0236585236590262
-0,0234352976319583
-0,023364618134615
-0,0234432439130469
-0,0236663240335122
-0,0240285293340858
-0,0245248700093458
-0,025151081729018
-0,0259035112072902
-0,026778488876526
-0,0277712355953328
-0,0288744061795121
-0,0300764192526058
-0,0313597555343246
-0,0326994216541093
-0,0340617719876762
-0,0354038569096203
-0,0366734242242006
-0,0378096451423564
-0,0387445722233638
-0,0394052703545333
-0,0397164995385421
-0,039603776200591
-0,0389966030985056
-0,0378316404559939
-0,0360555945016165
-0,0336276238975549
-0,0305211072366363
-0,0267246716148813
-0,0222424474980798
-0,0170935820699941
-0,0113111050842265
-0,00494029156666932
0,00196330069727988
0,00933592759824343
0,0171077059895338
0,025204457577247
0,0335492413737729
0,0420635250369349
0,050668009277926
0,0592831814195751
0,0678297266557253
0,0762289619452646
0,0844034726326627
0,0922781228393077
0,099781576954866
0,106848413427749
0,11342183827081
0,119456921244252
0,124924191003805
0,1298133458393
0,134136772961108
0,137932529560784
0,141266429010407
0,144232898949777
0,146954334909299
0,149578760662663
0,15227571873427
0,155230442901328
0,158636498748584
0,162687207026293
0,167566276466325
0,173438157678524
0,180438679677174
0,188666540189627
0,198176188265202
0,208972564440712
0,221008054951163
0,23418188029091
0,248341985330015
0,263289340005371
0,278784408645268
0,29455541377098
0,310307916681609
0,325735169589523
0,340528666809889
0,35438833630725
0,367031865184271
0,378202737737468
0,387676674321827
0,395266283517767
0,400823868341989
0,404242449014054
0,405455170787501
0,404433348205291
0,401183451976684
0,39574336947033
0,388178265371883
0,378576338837369
0,367044722993376
0,353705708946112
0,338693407198814
0,322150892089617
0,304227816118958
0,285078435951834
0,264859963497486
0,243731144748299
0,221850974760625
0,199377476236959
0,176466497150401
0,153270514548411
0,12993746172909
0,106609619680755
0,0834226273682114
0,0605046671141895
0,0379758706855598
0,0159479702923051
-0,00547581032366516
-0,0262006619176263
-0,0461399609085145
-0,0652149980329974
-0,0833547704508242
-0,100495943122275
-0,116583070010795
-0,131569135791788
-0,145416436746675
-0,158097769510122
-0,169597843816595
-0,17991478651743
-0,189061565075182
-0,197067135036331
-0,203977111706799
-0,209853783661516
-0,214775324771619
-0,218834119712593
-0,222134190811255
-0,224787795133773
-0,22691134220458
-0,228620856526364
-0,230027267303827
-0,231231843867688
-0,232322104478058
-0,233368506273162
-0,234422175567529
-0,235513863912625
-0,236654222163523
-0,237835380269458
-0,23903371389409
-0,2402135800377
-0,241331721815416
-0,242341985306914
-0,243199964559031
-0,243867197327827
-0,244314573743623
-0,244524689537619
-0,244492968644574
-0,244227488579617
-0,243747556170739
-0,243081190678693
-0,242261766171687
-0,241324136743782
-0,240300610435401
-0,239217146987233
-0,238090130341618
-0,236924011695974
-0,235710038340807
-0,234426185137608
-0,23303829848621
-0,231502356792199
-0,229767656217083
-0,227780654174031
-0,225489151905749
-0,222846475401289
-0,219815321924843
-0,216370975788986
-0,212503657456161
-0,208219848259279
-0,203542521323184
-0,198510299334819
-0,193175643624342
-0,18760224942128
-0,181861873705181
-0,176030851252612
-0,170186560143484
-0,164404081176477
-0,158753259461909
-0,153296325618008
-0,148086174290573
-0,143165335329464
-0,138565613901943
-0,134308325325899
-0,130405012419457
-0,126858510096827
-0,123664214523911
-0,120811421434369
-0,118284617865382
-0,116064640180914
-0,114129644753875
-0,112455871866537
-0,11101821438921
-0,109790627373365
-0,108746430711463
-0,107858563396607
-0,107099844886338
-0,10644328785574
-0,105862489394502
-0,105332107151029
-0,104828405979793
-0,104329842131473
-0,103817638277832
-0,103276295336515
-0,102693986993772
-0,102062789874392
-0,101378715559324
-0,100641528426361
-0,0998543534464299
-0,0990230982384577
-0,0981557315627673
-0,0972614740110356
-0,0963499644726001
-0,0954304672432369
-0,0945111793371749
-0,093598686371786
-0,0926975996331418
-0,0918103883804412
-0,0909374021647531
-0,0900770600050499
-0,0892261685491623
-0,088380321358997
-0,0875343271317209
-0,0866826163077033
-0,0858195828040316
-0,0849398295748721
-0,0840383019224507
-0,0831103091918917
-0,0821514517530212
-0,0811574841715893
-0,0801241555763659
-0,0790470732667767
-0,0779216349033722
-0,0767430681433743
-0,0755066048557214
-0,0742078011885455
-0,0728429963033161
-0,0714098833897148
-0,0699081486014364
-0,068340118715907
-0,0667113483026811
-0,0650310732477277
-0,0633124603859794
-0,0615725928948326
-0,0598321475259743
-0,058114741638482
-0,056445953751472
-0,0548520489951144
-0,0533584681523805
-0,0519881637078476
-0,0507598862398908
-0,0496865377930583
-0,0487737140807281
-0,0480185537075621
-0,0474089998376996
-0,0469235584193339
-0,0465316083448079
-0,0461942845968081
-0,0458659177273929
-0,0454959745589203
-0,0450314084983448
-0,0444192960325534
-0,0436096112218273
-0,042557974388644
-0,0412282060705362
-0,0395945234117413
-0,0376432333915375
-0,0353738047988235
-0,0327992369558332
-0,029945685675718
-0,026851352920223
-0,0235646930849972
-0,0201420325115004
-0,0166447367184222
-0,0131360891931197
-0,00967806435345649
-0,00632818401609268
-0,00313664093632958
-0,000143855039653036
0,00262140085927584
0,00514320672660811
0,00741897702231153
0,00945920988694708
0,01128654160522
0,0129341868376187
0,0144438811190562
0,0158634689869627
0,0172442970949401
0,0186385759528631
0,0200968665513062
0,0216658300518701
0,0233863517598009
0,0252921171651408
0,0274086808460796
0,0297530315590115
0,0323336219238047
0,0351508014235007
0,0381975691769131
0,0414605494918233
0,044921089233559
0,0485563812414771
0,0523405313931255
0,0562455066218921
0,0602419250280416
0,0642996745342995
0,0683883707712056
0,0724776855353706
0,0765375923081801
0,0805385835026497
0,084451914712331
0,0882499243398072
0,0919064635181757
0,0953974527085374
0,098701559860364
0,101800972875572
0,104682218787526
0,107336965770046
0,109762733714472
0,111963435935034
0,11394967917451
0,115738761310191
0,117354325105491
0,1188256504485
0,120186594672457
0,121474218432758
0,122727160686875
0,123983848319951
0,125280641874427
0,12665002727519
0,128118963588194
0,129707488722058
0,131427669182918
0,133282957905471
0,135267997584022
0,137368878013751
0,139563826999341
0,141824287633213
0,144116312132862
0,146402185501242
0,148642182006397
0,15079635427089
0,152826258413989
0,154696528425509
0,156376227633253
0,15783992322668
0,159068449725375
0,160049347416839
0,160776980686059
0,161252357641031
0,16148268569461
0,161480707329528
0,161263866097086
0,160853355220285
0,160273100484277
0,159548726053144
0,158706547128339
0,157772627627666
0,156771934842631
0,155727616702573
0,154660421047762
0,153588270236996
0,152525998409283
0,151485252679682
0,150474553339245
0,149499501716438
0,148563117827256
0,147666283503176
0,146808260747329
0,14598725010425
0,145200950428081
0,144447080142215
0,143723821393259
0,143030152677178
0,142366042650934
0,141732487646434
0,141131387365409
0,14056526648399
0,140036863382521
0,139548619710658
0,139102114788094
0,138697495785108
0,138332957340727
0,138004322231901
0,137704767785952
0,137424731321304
0,137152012850796
0,136872075864457
0,136568528791941
0,136223752502234
0,135819624655222
0,135338281462402
0,134762852634015
0,134078106718125
0,133270951757874
0,132330749692045
0,131249421035572
0,130021337410138
0,128643021387371
0,127112693600183
0,125429723951207
0,123594055064071
0,121605670452362
0,119464176414106
0,117168555439551
0,114717130765238
0,112107758224773
0,109338235014319
0,106406888119713
0,103313280817107
0,1000589566679
0,0966481291592982
0,093088223264737
0,0893901835585888
0,0855684818595852
0,0816407844265882
0,0776272722117843
0,0735496445098341
0,0694298729037869
0,06528880489774
0,0611447414042712
0,0570121262766232
0,0529004871692666
0,0488137542007139
0,0447500565401378
0,0407020588410931
0,0366578524120155
0,0326023641684055
0,0285191944574845
0,0243927477835855
0,0202104830701961
0,0159650864325188
0,0116563625276096
0,00729265191741244
0,00289161141763904
-0,00151975967969641
-0,00590590574938718
-0,0102243044905931
-0,0144277816098999
-0,0184674059815843
-0,0222957642529022
-0,0258703722789675
-0,0291569582503823
-0,0321323514518646
-0,0347867319887292
-0,0371250392660009
-0,0391673973770359
-0,0409484890819969
-0,0425158907794009
-0,0439274620887529
-0,0452479586128908
-0,0465450988327023
-0,0478853606757226
-0,0493298063481781
-0,0509302336570929
-0,0527259283538471
-0,0547412470563492
-0,0569841978806187
-0,0594461112423177
-0,0621024125126368
-0,064914427852017
-0,0678320809282707
-0,0707972769355926
-0,0737477257991148
-0,0766209315633791
-0,0793580709480423
-0,0819075003735099
-0,0842276653301165
-0,0862892353338348
-0,0880763474846446
-0,089586906885316
-0,090831957854119
-0,0918342012749124
-0,0926257865405652
-0,0932455482951813
-0,0937358865697108
-0,0941395031013882
-0,0944962068331454
-0,0948399889548077
-0,095196544190315
-0,0955813826434923
-0,0959986378928597
-0,0964406346433746
-0,0968882354627595
-0,0973119429632782
-0,0976736930406658
-0,0979292378506241
-0,0980309853425972
-0,0979311364093906
-0,0975849419920137
-0,0969538916763609
-0,0960086432590679
-0,0947315101320337
-0,0931183406271538
-0,0911796508350539
-0,088940909471738
-0,0864419191549265
-0,0837352911835316
-0,0808840680713045
-0,0779586063655442
-0,0750328877935952
-0,0721804752574053
-0,0694703673352426
-0,066963026816941
-0,0647068621886876
-0,0627354239300566
-0,061065539454098
-0,0596965527782525
-0,0586107605857799
-0,0577750500276129
-0,0571436516257281
-0,0566618302340678
-0,056270255866087
-0,0559097317454979
-0,0555259156920807
-0,0550736577897286
-0,0545205949362318
-0,0538496914631869
-0,0530604919582564
-0,0521689524293053
-0,0512058314153956
-0,0502137441803131
-0,0492431003496033
-0,0483472478073025
-0,0475772237512886
-0,0469765597256522
-0,0465765959765783
-0,0463927295887407
-0,0464219519584924
-0,0466419291859057
-0,0470117519534705
-0,0474743399564305
-0,0479603421438669
-0,0483932406024913
-0,0486952549915991
-0,0487935663473613
-0,0486263414648435
-0,0481480460654194
-0,0473335867428727
-0,0461809144133449
-0,0447118480430913
-0,0429710260635807
-0,041023051155974
-0,0389480480667721
-0,0368359900368175
-0,0347802551060976
-0,0328709393767462
-0,0311884742608684
-0,0297980668905459
-0,0287454096399286
-0,0280539926679048
-0,0277242126327361
-0,0277343139816656
-0,0280430406664552
-0,0285937301049796
-0,0293194608472519
-0,030148781441908
-0,0310115077707545
-0,0318440828884159
-0,0325940460345149
-0,0332232505944086
-0,03370959527494
-0,0340471766102269
-0,0342449204470853
-0,0343238911265185
-0,0343135964829347
-0,0342476934904689
-0,0341595455667918
-0,0340780843358136
-0,0340243864386473
-0,0340092944389661
-0,0340322983728147
-0,0340817623959956
-0,0341364424368945
-0,0341681094509311
-0,0341449817073862
-0,034035589351992
-0,033812653016368
-0,0334565593957556
-0,0329580601345288
-0,0323199015380867
-0,0315572033271496
-0,0306965336824882
-0,0297737622362946
-0,0288308989293388
-0,0279122320734633
-0,0270601528867115
-0,0263110886990648
-0,0256919593090746
-0,025217521208908
-0,024888877408383
-0,0246933149072012
-0,0246054989675186
-0,0245899164490576
-0,0246043333044816
-0,0246039267447359
-0,0245456812164396
-0,0243926066349744
-0,0241173507302255
-0,0237048339364623
-0,0231536297887636
-0,0224759372048113
-0,0216961313545621
-0,0208480232313169
-0,0199710903551523
-0,0191060489532217
-0,0182902105217188
-0,0175530952416919
-0,0169127578641478
-0,016373219444018
-0,0159232962496106
-0,015536984745302
-0,0151754113317639
-0,0147902018923413
-0,0143279840526427
-0,0137356182841063
-0,0129656742014561
-0,0119816337209828
-0,0107623170298478
-0,00930508977925728
-0,00762751513433986
-0,00576725275889582
-0,00378016574309989
-0,00173676109066179
0,000282755696600792
0,00219440075641781
0,00391680151210468
0,00537750213293726
0,0065186329237441
0,00730144385771173
0,00770930023578364
0,00774887298885147
0,00744941514761734
0,00686018497416589
0,00604623976341455
0,00508296753272178
0,0040498338129643
0,00302388773682602
0,00207358976581888
0,00125349142179295
0,000600218542087953
0,000130091344092921
-0,000161432039924748
-0,000298463519757414
-0,000321681468400063
-0,000283900561845565
-0,000244621001519201
-0,000264046797612111
-0,000397102421973943
-0,000687969948688322
-0,00116561628539116
-0,00184068773492524
-0,00270402584986958
-0,00372691575679946
-0,00486302871565907
-0,00605187778233417
-0,00722348121855559
-0,00830383298798313
-0,0092207206334553
-0,00990941203354579
-0,0103177543457471
-0,0104102876428695
-0,0101710660521516
-0,00960499183828856
-0,00873759251102629
-0,00761329672895367
-0,00629238096311551
-0,00484685630028947
-0,00335563614434012
-0,00189936628074421
-0,00055530693204428
0,000607366882878376
0,00153153152974534
0,00217510553238367
0,00251291088826491
0,0025373453704421
0,00225789912485127
0,00169963260908914
0,000900801282050614
-9,01391074478774E-05
-0,00121788675024742
-0,00242374445426957
-0,00364892181766908
-0,00483748008493219
-0,00593876052254107
-0,00690919490913243
-0,00771345701810247
-0,00832497133143351
-0,0087258450027896
-0,00890632758880919
-0,00886392796068533
-0,00860232810812761
-0,00813022968748775
-0,00746025280316202
-0,0066079803005049
-0,005591208152101
-0,0044294270319186
-0,00314352558372091
-0,00175567558088024
-0,0002893358654664
0,00123070238481759
0,00277831090726735
0,0043261363896089
0,00584589090226993
0,00730886034374168
0,00868664348178319
0,00995210487236394
0,011080496216415
0,0120506753853333
0,0128463328379444
0,0134571233978847
0,0138795985972387
0,0141178414883662
0,0141837216426447
0,0140967119113116
0,0138832386127312
0,0135755708638711
0,0132102900924616
0,0128264146026888
0,0124632836575185
0,0121583284779448
0,0119448718884113
0,0118501027018348
0,0118933647821175
0,0120848841836459
0,0124250318564971
0,0129041857469311
0,0135032170172776
0,0141945832275155
0,0149439696104418
0,0157123809911488
0,0164585542403921
0,0171415367981486
0,017723262626443
0,0181709540894063
0,0184591871266786
0,0185714772591876
0,0185012742489891
0,0182522917465451
0,0178381424865898
0,0172812966681853
0,0166114278860315
0,015863254243163
0,0150740190339615
0,014280783030273
0,0135177168659296
0,0128135858991427
0,0121896106862041
0,0116578640812213
0,0112203321396242
0,0108687224244421
0,0105850526287699
0,0103429979382546
0,0101099208257339
0,00984945581385284
0,00952447782039712
0,00910024934366812
0,00854752172806744
0,00784536096805915
0,00698347995738236
0,00596388659316928
0,00480169940785527
0,00352503700530305
0,00217395106581603
0,000798440840389896
-0,000544344950835629
-0,00179355005143217
-0,00288847483168914
-0,0037726025936796
-0,00439750721015849
-0,00472636061923161
-0,00473677881766107
-0,00442278519409029
-0,00379572792346652
-0,00288405989184443
-0,00173197018715339
-0,000396939601202168
0,00105362745863147
0,00254647210945902
0,00400697398212848
0,00536375629840919
0,00655307995324703
0,00752271673481686
0,00823502893766386
0,00866904102919281
0,00882136430628984
0,00870592177743633
0,00835251095087079
0,00780432951839375
0,00711466601292811
0,0063430180689097
0,00555094000369903
0,00479793590850191
0,00413770321352703
0,00361499591161455
0,00326331947691833
0,00310359607995644
0,00314385536820739
0,00337992010459067
0,00379697475524059
0,00437183559155576
0,00507568887506697
0,00587703339590396
0,00674455730018796
0,00764969681280835
0,00856866405420651
0,00948378865940572
0,0103840877419511
0,0112650543352924
0,0121277287632583
0,0129771836904022
0,0138206059547693
0,0146651921634933
0,0155160876770898
0,0163745892695021
0,0172368017136645
0,0180928909879699
0,0189270164708159
0,019717957222955
0,0204403796509561
0,0210666318162777
0,0215688991109768
0,0219215214759696
0,0221032567947628
0,0220992797237479
0,0219027293147223
0,0215156598832974
0,0209493036418385
0,0202236155507864
0,0193661348432096
0,0184102578999212
0,017393068164877
0,0163529060906553
0,0153268825375602
0,014348541021921
0,0134458578467289
0,0126397362404821
0,0119431044226946
0,0113606724147846
0,0108893435544977
0,0105192194134921
0,0102350863264415
0,0100182324253801
0,0098484193057589
0,00970582419289025
0,00957277718467832
0,00943514271982153
0,00928323234728732
0,00911218345123158
0,00892179131864582
0,0087158348775741
0,00850098471408427
0,00828542118217808
0,00807731699952103
0,0078833503435331
0,00770741010551336
0,00754963514224508
0,00740589594953017
0,0072677833016171
0,00712311814147443
0,00695694499476304
0,00675292229140829
0,00649498172211025
0,0061690990610912
0,00576500359279024
0,00527765396846996
0,00470832514373697
0,00406518267265426
0,00336326442411261
0,00262384191529083
0,00187318936455241
0,00114084325593424
0,00045748373465985
-0,000147392930193245
-0,000647817856117898
-0,00102350888364801
-0,00126165587435742
-0,00135816924564479
-0,00131827088045868
-0,00115635972805857
-0,000895144403581373
-0,000564096779642387
-0,000197338618516765
0,000168877382381273
0,000498894473948193
0,000760369076321827
0,000926758977370375
0,000979379852238636
0,000908861332602621
0,000715882070165795
0,000411121782084184
1,44321375271185E-05
-0,00044670785245633
-0,00093932796548793
-0,00142752257594094
-0,00187522086261347
-0,00224894994851008
-0,00252037181318166
-0,00266839531169433
-0,0026807014540856
-0,00255456996664189
-0,00229695377060811
-0,00192381029382892
-0,00145875921790445
-0,000931190248751645
-0,000373987327253402
0,000178936052595223
0,000695084253352565
0,00114560938236962
0,00150714598898375
0,00176310991661029
0,00190436876950993
0,00192924643036839
0,00184288115581335
0,00165601120547795
0,00138330918652813
0,00104142258071434
0,000646900393964889
0,000214192971639513
-0,000246096574314529
-0,000728554187942573
-0,00123377062608605
-0,00176855706882031
-0,00234553726778683
-0,00298214507298865
-0,00369910547060625
-0,00451851984054084
-0,00546170873307243
-0,00654698566463021
-0,00778754188043267
-0,00918961445085294
-0,0107510892765559
-0,0124606583854975
-0,0142976099427306
-0,0162322828922646
-0,0182271696710074
-0,020238603574905
-0,0222189255432429
-0,0241189912540605
-0,0258908557951159
-0,0274904612369107
-0,0288801527709279
-0,030030861381949
-0,0309238141441304
-0,0315516652953785
-0,0319189798108605
-0,0320420434664158
-0,031948016387164
-0,0316734879128744
-0,0312625266046575
-0,030764348184216
-0,0302307444166792
-0,0297134264530166
-0,0292614365893502
-0,0289187731446722
-0,0287223551922125
-0,0287004287189304
-0,0288714853649776
-0,0292437313842536
-0,0298151101705855
-0,0305738488366024
-0,0314994699566104
-0,0325641853966941
-0,0337345714505578
-0,0349734140715692
-0,0362416101116778
-0,0375000149197539
-0,0387111376712797
-0,0398406022765364
-0,040858312186397
-0,0417392802127581
-0,0424641078814716
-0,0430191211122715
-0,0433961886810176
-0,0435922656882062
-0,0436087152782241
-0,0434504676786009
-0,0431250762722901
-0,0426417263663315
-0,0420102444511884
-0,041240145289405
-0,0403397425605568
-0,0393153375559633
-0,0381704910210468
-0,0369053769375895
-0,0355162147072113
-0,0339947782690008
-0,0323279870162077
-0,0304975932624749
-0,0284799931632408
-0,0262462007022749
-0,0237620355113075
-0,0209885827293524
-0,0178829846987904
-0,0143996182836209
-0,010491696795156
-0,00611331152725846
-0,00122189529771915
0,00421894926637446
0,0102363580671636
0,0168449969594878
0,0240439246284309
0,0318137495357342
0,0401143256351074
0,048883237509919
0,0580353122782812
0,0674633612596377
0,0770402988149651
0,0866227106309473
0,0960558525348375
0,105179959056932
0,113837635193088
0,121882003058268
0,129185185717978
0,135646641600284
0,141200821809652
0,145823615063955
0,149537074380975
0,152411986901621
0,154567951353296
0,156170761656195
0,157427052415625
0,158576332590171
0,159880706003346
0,161612739295496
0,164042077350822
0,167421512230551
0,171973275332936
0,177876337810133
0,185255468500245
0,194172712795839
0,204621824643068
0,216526015401126
0,229739188566315
0,244050621461733
0,259192848092624
0,274852305675349
0,290682144052445
0,306316473454191
0,321385250105331
0,335528975808071
0,348412417779109
0,359736635808808
0,369248728693949
0,376748871366403
0,382094396324174
0,385200864711672
0,38604026017014
0,38463660956939
0,381059477749782
0,375415889660514
0,367841296997423
0,358490225110128
0,347527210476333
0,33511857343293
0,321425471879433
0,306598558161343
0,290774423466399
0,274073872474965
0,256601936053765
0,238449410728977
0,219695618091565
0,200412010569941
0,180666215147851
0,160526104055554
0,140063509344072
0,119357252559122
0,0984952358496874
0,0775754299862529
0,056705690615962
0,0360024293032813
0,0155882536840515
-0,0044112344038982
-0,0238712372107949
-0,0426718741989576
-0,0607023145198421
-0,0778646412862529
-0,0940771880602381
-0,109277132944653
-0,123422193616774
-0,136491332885819
-0,148484453896139
-0,15942113199625
-0,169338491950082
-0,178288390650099
-0,186334103708477
-0,193546737239465
-0,200001592846066
-0,205774704538508
-0,210939742346312
-0,215565440997039
-0,219713666315104
-0,223438180542662
-0,226784114529944
-0,229788103623904
-0,232478998751717
-0,234879027830662
-0,237005257618028
-0,238871193940054
-0,240488359410898
-0,241867701675743
-0,243020710383904
-0,243960155104823
-0,244700396210424
-0,245257262911282
-0,245647533593018
-0,245888089973794
-0,245994845435127
-0,245981566973019
-0,245858718155132
-0,245632446905552
-0,245303827466801
-0,244868442031358
-0,244316356641536
-0,243632510889507
-0,242797504886677
-0,241788733136103
-0,240581786212177
-0,239152019946631
-0,237476179760331
-0,235533965668687
-0,233309431137773
-0,230792125383169
-0,227977912058872
-0,224869425186836
-0,221476152939386
-0,217814168676736
-0,213905553889367
-0,209777577239731
-0,205461706231461
-0,200992532390107
-0,196406687333576
-0,191741816554252
-0,18703566169609
-0,18232528262926
-0,177646429992729
-0,173033059479051
-0,168516963081869
-0,164127481532186
-0,159891257307046
-0,155831989282892
-0,151970157966125
-0,148322703188846
-0,144902652583867
-0,141718716953156
-0,138774885637209
-0,136070068928313
-0,133597843606292
-0,131346360361537
-0,129298467473815
-0,127432093604915
-0,125720914689381
-0,124135307105513
-0,122643563591697
-0,121213322158197
-0,119813134068179
-0,118414077325599
-0,116991309151889
-0,115525446270231
-0,114003666361648
-0,112420437904292
-0,11077780803911
-0,109085207559265
-0,107358766458598
-0,105620169937236
-0,103895120457422
-0,102211503344887
-0,10059737885211
-0,0990789402422468
-0,0976785837741876
-0,0964132316562428
-0,0952930332627504
-0,0943205441361987
-0,09349044838587
-0,0927898505364979
-0,0921991206549087
-0,0916932349104819
-0,0912435158486485
-0,0908196454902721
-0,0903918024086627
-0,0899327629237734
-0,0894198074624041
-0,0888362859770498
-0,0881727202671025
-0,0874273543754671
-0,0866061045531836
-0,0857219046139105
-0,0847934876121323
-0,0838436873148623
-0,0828973797435165
-0,0819792133949623
-0,0811112944531063
-0,0803109990129988
-0,0795890775302043
-0,0789481978061395
-0,0783820430869166
-0,0778750433732365
-0,0774027735404758
-0,0769330045214524
-0,0764273470166276
-0,0758433843461391
-0,075137155289381
-0,0742658216652365
-0,0731903409775515
-0,0718779627528039
-0,0703043784461351
-0,0684553782093554
-0,0663279017468784
-0,0639304124797157
-0,0612825712515445
-0,0584142343805902
-0,0553638474261297
-0,052176347169362
-0,0489007169392493
-0,0455873621960032
-0,0422854826049053
-0,0390406131132548
-0,0358924901651966
-0,0328733715420395
-0,0300069016531861
-0,0273075713944645
-0,0247807763483233
-0,0224234327433387
-0,0202250707149494
-0,0181692921181484
-0,0162354579020458
-0,0144004594429911
-0,0126404298869627
-0,0109322650258894
-0,00925484714018729
-0,00758989727821287
-0,00592241869330596
-0,00424073324750129
-0,00253615007976869
-0,000802338429402604
0,00096549856422361
0,00277153710923747
0,00462021683720858
0,00651698639348611
0,00846881841757025
0,0104844275773844
0,0125741571561065
0,0147495346182673
0,0170225312541602
0,0194045922712285
0,0219055286028725
0,0245323780251583
0,0272883493462233
0,0301719589850807
0,0331764545338661
0,0362895963218097
0,0394938376758915
0,0427669103078309
0,0460827861306616
0,0494129540132429
0,0527279224479598
0,0559988392977999
0,0591991094300365
0,0623058909871298
0,065301361236432
0,0681736623274963
0,0709174640589856
0,0735341123938424
0,0760313660652184
0,0784227560925282
0,080726631506478
0,0829649765093114
0,0851620978610345
0,087343285419943
0,0895335433745496
0,0917564755705813
0,0940333871059207
0,0963826383340449
0,0988192593597464
0,101354805926523
0,103997414122368
0,106751993953591
0,109620492331588
0,112602155303318
0,115693727462617
0,118889542427906
0,122181480311745
0,125558793716342
0,129007830066986
0,132511701963696
0,136049975788797
0,139598459622417
0,143129172924361
0,146610571681214
0,150008084119629
0,153284985033486
0,156403603570636
0,159326823119118
0,162019796247509
0,164451766245973
0,166597863140159
0,168440729025255
0,169971827177379
0,171192302553273
0,172113287543469
0,172755584598183
0,173148703718307
0,173329284054326
0,17333898058925
0,173221944479993
0,17302206467211
0,172780165087144
0,172531363175936
0,172302790391496
0,172111853050714
0,171965174518942
0,171858309462674
0,171776262041329
0,171694777194544
0,171582312876775
0,171402546434062
0,171117225057279
0,17068914219113
0,170085011480926
0,169278018332599
0,168249855860184
0,166992094727889
0,165506791594215
0,163806303845974
0,161912343712388
0,159854367049719
0,157667445759289
0,155389813324096
0,153060296841422
0,150715854169167
0,14838942099425
0,14610824102814
0,143892805993881
0,14175647471771
0,139705777597499
0,137741349598603
0,135859377351007
0,134053399040246
0,13231626380067
0,130642043120059
0,129027691680802
0,127474278691614
0,125987651063153
0,124578443205839
0,123261410015248
0,122054124272355
0,12097514140684
0,120041787776839
0,119267768454314
0,118660813296741
0,118220583592257
0,117937045327233
0,117789480353938
0,117746256338451
0,117765414627108
0,117796067411538
0,117780527641736
0,117657032960445
0,117362873916773
0,116837701309845
0,11602677080447
0,114883886404269
0,113373827637713
0,111474086373246
0,109175794449025
0,106483787938645
0,103415822319685
0,100001019146461
0,0962776834198075
0,0922906767832191
0,0880885612205997
0,0837207388080327
0,0792348047322319
0,0746743043222759
0,0700770429529323
0,0654740443818246
0,0608891933141385
0,0563395371605879
0,0518361654553448
0,0473855381298382
0,0429910997091635
0,0386549982160297
0,0343797262856307
0,0301695173567294
0,0260313599061392
0,0219755344261728
0,0180156270287872
0,0141680255624491
0,0104509540920971
0,00688314506950674
0,00348228169415328
0,000263363153324236
-0,00276284886734115
-0,00559115287812688
-0,00822287218901055
-0,0106663673069347
-0,0129370428642192
-0,0150568404091244
-0,0170532526554184
-0,0189579347820746
-0,0208050206889328
-0,0226292741765754
-0,0244642152341654
-0,0263403595615287
-0,0282836957644959
-0,0303145010477723
-0,0324465651436116
-0,0346868567425101
-0,0370356300767557
-0,039486934837471
-0,0420294631182221
-0,0446476449116023
-0,0473228903250772
-0,0500348728201031
-0,0527627531570375
-0,0554862573372179
-0,0581865419378223
-0,0608468046508015
-0,0634526241174086
-0,0659920388083599
-0,0684553975051941
-0,0708350319847196
-0,0731248145159677
-0,075319668016334
-0,0774150951733773
-0,0794067850590314
-0,0812903428862752
-0,0830611720341316
-0,0847145190660957
-0,0862456739663884
-0,0876503009239536
-0,0889248611934668
-0,0900670799447431
-0,0910764042952663
-0,0919544001238307
-0,0927050405793044
-0,0933348487993859
-0,0938528702932089
-0,0942704655227753
-0,0946009291189687
-0,0948589575549926
-0,0950600006927023
-0,0952195433524642
-0,0953523700396634
-0,0954718686937626
-0,095589427505848
-0,0957139726387658
-0,0958516844415835
-0,096005916220692
-0,0961773237398649
-0,0963641965259504
-0,096562965002648
-0,0967688417867032
-0,0969765424061954
-0,0971810214120083
-0,0973781552808521
-0,097565304311684
-0,0977416922201609
-0,0979085542139738
-0,0980690214692214
-0,0982277311338412
-0,0983901748668351
-0,098561823767803
-0,0987470913552298
-0,0989482169631684
-0,0991641675021585
-0,099389664185679
-0,0996144411727565
-0,0998228343210645
-0,0999937802531727
-0,100101279416451
-0,100115343211998
-0,100003406823811
-0,0997321489426
-0,0992696204058951
-0,0985875493383414
-0,0976636639658793
-0,0964838587991468
-0,0950440274938597
-0,0933513975744848
-0,0914252283902
-0,0892967729134688
-0,0870084538831376
-0,0846122617887744
-0,0821674419248008
-0,0797375954002471
-0,0773873695882764
-0,0751789524824442
-0,0731686089964314
-0,0714035027335998
-0,0699190329979858
-0,0687368842355942
-0,067863935757644
-0,0672921171140913
-0,0669992237113932
-0,066950633906236
-0,0671017989955962
-0,0674013171555299
-0,0677943567728688
-0,0682261677961731
-0,0686454142888622
-0,0690070779396772
-0,0692747197206484
-0,0694219421239932
-0,0694329628007762
-0,0693022861859018
-0,0690335362591749
-0,0686375843660819
-0,0681301648094987
-0,06752921262215
-0,0668521788601477
-0,0661135771221772
-0,0653229909515734
-0,0644837274490574
-0,0635922417777323
-0,062638385639224
-0,0616064565850631
-0,0604769509731384
-0,0592288580037809
-0,0578422813711184
-0,0563011431029454
-0,0545957139720877
-0,0527247272651597
-0,0506968666424978
-0,048531471259061
-0,0462583676736084
-0,0439168124952908
-0,0415536057974433
-0,0392205063965599
-0,0369711401164333
-0,0348576360047508
-0,0329272494749045
-0,0312192336640551
-0,02976220085168
-0,0285721765092794
-0,0276514929677443
-0,0269886027166652
-0,0265588188084848
-0,0263259178941863
-0,0262444761309256
-0,0262627548508624
-0,0263259156876178
-0,026379326513869
-0,0263717209953884
-0,0262579951745155
-0,0260014617874164
-0,0255754333069143
-0,0249640632033183
-0,0241624363298208
-0,0231759582591921
-0,0220191449082223
-0,0207139537393159
-0,0192878233330671
-0,0177715977081954
-0,0161975053991846
-0,0145973425006636
-0,0130009763488956
-0,011435245942538
-0,0099232908448477
-0,00848429663495428
-0,00713360606303276
-0,00588311446485325
-0,0047418481937643
-0,00371661717031805
-0,00281263721979349
-0,00203403347750385
-0,00138416060110862
-0,000865705735660433
-0,000480572658239588
-0,000229576602372669
-0,000112005568347143
-0,00012512270315751
-0,000263693639157562
-0,000519621712026716
-0,000881762964487974
-0,00133597313510666
-0,00186541268986419
-0,00245110629935529
-0,00307272329388651
-0,0037095188221814
-0,00434135469882136
-0,00494970658444855
-0,0055185615927468
-0,00603511819861682
-0,0064902176360502
-0,00687846127029776
-0,00719799908836678
-0,00745000741891191
-0,00763790584951783
-0,00776639070464098
-0,00784038251854457
-0,00786399540195657
-0,00783963589038842
-0,0077673275240797
-0,00764433605551532
-0,00746514078842703
-0,00722176296926339
-0,00690442581462669
-0,00650248632173352
-0,00600555004095259
-0,00540465951302132
-0,00469343731833205
-0,00386906688039811
-0,00293300823995533
-0,00189137080007599
-0,000754898143375678
0,00046144175286073
0,00173922809872419
0,0030576511355641
0,00439476857039972
0,00572883463144807
0,0070395735571396
0,00830927434330231
0,00952360148451349
0,0106720457166829
0,0117479764943345
0,0127483004466566
0,013672772871964
0,0145230480422278
0,0153015844071304
0,0160105393564619
0,0166507926314568
0,0172212269223629
0,0177183692712195
0,0181364597636018
0,018467968141398
0,0187045289028495
0,0188382162857464
0,0188630374047703
0,0187764894835171
0,0185810093397799
0,0182851424946287
0,0179042762491758
0,0174608148285941
0,0169837224998537
0,016507418261374
0,0160700679062184
0,0157113800741093
0,0154700662715795
0,015381165391713
0,0154734565343965
0,0157671871652897
0,0162723258545172
0,0169875110269154
0,0178998122805253
0,0189853535359834
0,0202107734794148
0,0215354251236831
0,0229141495953838
0,0243004057541327
0,0256495020825273
0,0269216640039822
0,0280846799800409
0,0291159028033974
0,0300034358414278
0,0307464029969701
0,031354279875791
0,0318453450772789
0,0322443874677874
0,0325798708109665
0,0328808053288214
0,0331736022792987
0,0334791900047859
0,033810647842873
0,0341715696843561
0,0345553057151358
0,0349451545556858
0,0353154953095204
0,0356337672500195
0,0358631311384314
0,0359655869316868
0,035905283013893
0,0356517354111047
0,0351826830921677
0,0344863365477942
0,0335628285747448
0,0324247438601296
0,0310966816710082
0,0296138868569176
0,0280200615331084
0,0263645366633463
0,0246990337557962
0,0230742778964194
0,0215367320590836
0,0201257087146652
0,0188710797624849
0,0177917531247348
0,016895018762284
0,0161767941817858
0,0156227259872125
0,0152100358359598
0,0149099419000875
0,0146904450520357
0,0145192456038004
0,0143665529513916
0,0142075665709568
0,0140244406416329
0,013807592682739
0,0135562746433192
0,0132783876751173
0,0129895840571501
0,0127117563061519
0,0124710598919329
0,0122956487698105
0,0122133198532576
0,0122492627941864
0,0124240955123238
0,0127523357142386
0,0132414171017496
0,0138913098380762
0,0146947524307168
0,01563805077219
0,0167023539252845
0,0178652788166583
0,01910273018976
0,0203907496955015
0,0217072295339904
0,0230333412414207
0,0243545574178544
0,0256611811908933
0,0269483417511216
0,0282154609896971
0,0294652423040932
0,0307022744587679
0,0319313777487754
0,0331558439121258
