0,020536593090367
0,0266091943126746
0,0323786773009647
0,0376345392282771
0,0421982872626965
0,0459338713625271
0,0487550309452357
0,050629062136795
0,0515767904761782
0,051668826017413
0,0510184599775543
0,0497718115584742
0,0480960306568957
0,0461664918054374
0,0441539676447801
0,0422127439543
0,0404705366920636
0,0390209048406467
0,0379186363219123
0,0371783368438353
0,0367761941971891
0,0366546443612291
0,0367294502388256
0,0368985352196806
0,0370518038804517
0,0370811374553916
0,0368897732395856
0,0364003601891428
0,0355611183936169
0,0343497045203077
0,0327745830082262
0,0308739069082552
0,0287121060996378
0,026374549444789
0,0239607790490382
0,0215769008055058
0,019327751523408
0,017309449020852
0,0156028716182858
0,0142685147241538
0,0133430446483131
0,0128377249918771
0,012738741082599
0,0130093047389173
0,013593295661465
0,0144200953032986
0,0154102001797868
0,016481167223799
0,017553444302673
0,0185556720756619
0,0194291042936176
0,0201308763457791
0,0206359487516426
0,0209376557313536
0,0210468911820596
0,0209900583021324
0,0208059888959422
0,0205420994536398
0,0202500906078027
0,0199815131484476
0,0197835178125637
0,0196950792059214
0,0197439394672549
0,0199444584017951
0,0202964883943867
0,0207853191390278
0,0213826640088936
0,0220485913274443
0,0227342439232751
0,0233851427226873
0,0239448371792239
0,0243586488895659
0,0245772552183479
0,0245598768990885
0,0242768658190141
0,0237115342967051
0,0228611218843043
0,0217368563906202
0,0203631282901095
0,0187758576675338
0,0170201863712231
0,0151476713010522
0,0132131849442255
0,0112717441672444
0,00937548707407062
0,00757100047831567
0,00589716873672237
0,00438367070881373
0,00305019894802424
0,00190641793414076
0,000952620722418477
0,000180990354012765
-0,000422672166806897
-0,000876923908882575
-0,00120254849947574
-0,00142050730225376
-0,00155014937391856
-0,00160782732805152
-0,00160602511928246
-0,00155305394033664
-0,00145331830236132
-0,00130810059365342
-0,00111676369079256
-0,000878231843284634
-0,000592583483114435
-0,000262578358117874
0,000105053623123634
0,000498713393767514
0,000901539892061436
0,00129159316492173
0,00164262951783531
0,00192542859374479
0,00210957858305126
0,0021655794002852
0,00206708887742953
0,00179311709436036
0,00132997091488593
0,000672765239106351
-0,000173651618128284
-0,0011944659558041
-0,00236541216601063
-0,00365402237621343
-0,00502154100700949
-0,00642537563827588
-0,00782190789765851
-0,00916945416561567
-0,0104311488867626
-0,0115775247372989
-0,0125885840091927
-0,0134551927300403
-0,0141796803690459
-0,0147755892702921
-0,0152665842186623
-0,0156845982881467
-0,0160673510061538
-0,0164554239490376
-0,0168891131461598
-0,0174052944933154
-0,0180345363632326
-0,0187986732392866
-0,0197090171574485
-0,0207653334294534
-0,0219556476124804
-0,0232568870975341
-0,0246362980727586
-0,0260535221061402
-0,0274631704288172
-0,0288177016920338
-0,0300703926173441
-0,0311781913272988
-0,0321042596141027
-0,0328200409941434
-0,0333067330906337
-0,0335560918083406
-0,0335705467216158
-0,0333626576907009
-0,0329539881241652
-0,0323735070268759
-0,0316556578671544
-0,0308382457401678
-0,0299602954058581
-0,0290600221350409
-0,0281730369031451
-0,0273308796355918
-0,0265599419783402
-0,0258808073690424
-0,0253080039245046
-0,0248501373356137
-0,0245103483322705
-0,0242870236347709
-0,0241746808747068
-0,0241649466142835
-0,0242475512032423
-0,0244112736588502
-0,0246447822662147
-0,0249373307009931
-0,025279283592664
-0,0256624585102442
-0,0260802824467975
-0,0265277697897655
-0,0270013354073147
-0,0274984613421549
-0,0280172391870645
-0,0285558132354437
-0,0291117525453189
-0,0296813834628873
-0,0302591181592983
-0,0308368189460093
-0,0314032422103199
-0,031943608731611
-0,0324393481643746
-0,0328680634259281
-0,0332037549494322
-0,0334173346111495
-0,033477444577879
-0,0333515777081021
-0,0330074744406408
-0,0324147477532906
-0,0315466646051049
-0,0303819914027774
-0,0289067945786153
-0,0271160773380424
-0,0250151315940616
-0,0226204911077785
-0,0199603881282828
-0,0170746409404464
-0,0140139322225751
-0,0108384760359568
-0,00761611179736512
-0,00441990380311946
-0,00132536142495093
0,00159257485959426
0,00426261569842792
0,00662009776161961
0,00860967828583126
0,0101875910525747
0,0113233318025818
0,0120006768317416
0,0122179811406662
0,0119877488636889
0,0113355152378915
0,0102981226357926
0,00892150995003919
0,00725816226123455
0,00536438435145327
0,00329756632589337
0,00111360236108658
-0,0011353945870621
-0,00340296665137093
-0,00564969205559998
-0,00784402972150849
-0,0099626225461931
-0,011990090914152
-0,0139183796610747
-0,0157457465498379
-0,0174754968842347
-0,0191145766371724
-0,020672135434451
-0,0221581618198092
-0,023582277760968
-0,0249527591835447
-0,0262758263621021
-0,0275552243776312
-0,0287920913350487
-0,0299850922393867
-0,0311307804819213
-0,0322241374762784
-0,0332592343186486
-0,0342299572546103
-0,0351307406587773
-0,035957256379951
-0,0367070158259859
-0,0373798501174214
-0,0379782432191425
-0,0385075025104378
-0,0389757603152525
-0,0393938082022832
-0,0397747732687145
-0,0401336522300601
-0,0404867249409866
-0,040850874141148
-0,0412428427246062
-0,0416784636278569
-0,042171900276225
-0,0427349372051548
-0,043376360540267
-0,0441014661219646
-0,0449117289233276
-0,0458046607928877
-0,0467738744867265
-0,047809360743581
-0,0488979722592376
-0,0500240946682457
-0,0511704710033131
-0,0523191337274121
-0,0534523883971862
-0,0545537864838233
-0,0556090226079629
-0,0566066940210415
-0,0575388677381742
-0,0584014129716267
-0,0591940726891204
-0,0599202670725732
-0,0605866419212599
-0,0612023948847514
-0,0617784301912782
-0,062326406554411
-0,0628577519083216
-0,0633827215780412
-0,0639095730414144
-0,0644439207351324
-0,0649883191284221
-0,0655421028394102
-0,0661014905476414
-0,0666599368603495
-0,0672086951614328
-0,0677375367833721
-0,0682355592256142
-0,0686920098563055
-0,0690970521768702
-0,0694424092471347
-0,0697218326428562
-0,0699313639645746
-0,0700693776885339
-0,0701364168952538
-0,0701348548942313
-0,070068433754975
-0,0699417434923545
-0,0697597116550227
-0,0695271716619908
-0,0692485694196999
-0,0689278522309731
-0,068568563211241
-0,0681741404125801
-0,0677483948978976
-0,067296118726666
-0,0668237546714509
-0,0663400465338828
-0,0658565838392039
-0,0653881582856137
-0,0649528616245715
-0,0645718748550457
-0,0642689251033122
-0,0640694169807102
-0,0639992768359043
-0,0640835781338134
-0,0643450412350642
-0,0648025185719916
-0,0654695846283974
-0,0663533480561727
-0,0674535905193314
-0,068762314276977
-0,0702637497948346
-0,0719348385026314
-0,0737461672983312
-0,0756632940704844
-0,0776483708429112
-0,0796619462737928
-0,0816648145766843
-0,083619775099171
-0,0854931761447682
-0,0872561375044252
-0,0888853767092434
-0,0903636014060925
-0,0916794709348915
-0,0928271702706729
-0,0938056749561591
-0,0946178129782547
-0,0952692458570865
-0,0957674947424876
-0,0961211274612371
-0,0963392000625046
-0,0964310135165554
-0,096406206037585
-0,0962751581147032
-0,0960496452059909
-0,0957436367240962
-0,0953741135066385
-0,0949617626356309
-0,0945314102221036
-0,0941120701937049
-0,0937365190743327
-0,0934403507456179
-0,0932605172194338
-0,0932334166910633
-0,0933926430698513
-0,0937665563769608
-0,0943758658309041
-0,0952314332882157
-0,0963325014119459
-0,0976655279525031
-0,09920376596902
-0,100907672944472
-0,102726164189356
-0,104598653835403
-0,106457756715725
-0,108232463387959
-0,109851554633926
-0,111246996032665
-0,11235705075071
-0,113128870711276
-0,113520371368232
-0,113501259819429
-0,113053164213832
-0,112168896996041
-0,110850967152417
-0,109109528908154
-0,106960008360525
-0,104420679078726
-0,101510458583042
-0,098247168420077
-0,0946464428249974
-0,0907213893732317
-0,0864830067787108
-0,0819412597015488
-0,0771066087941756
-0,0719917075249551
-0,0666129159452059
-0,0609912542542169
-0,0551524315704955
-0,049125640215183
-0,0429409013388551
-0,0366248782752576
-0,0301952299608453
-0,0236537454847359
-0,0169786673366718
-0,0101167594111
-0,00297579078256844
0,00458182575640816
0,0127434908096019
0,021748274210802
0,0318855894095627
0,0434902823092951
0,0569339557532433
0,0726126102919133
0,0909309567682243
0,112284025395038
0,137036937659289
0,165503900853754
0,197927612713557
0,23446031231907
0,275147675952252
0,319916632248739
0,368567966187352
0,420774309056744
0,476083790275384
0,533929279751735
0,593642801964138
0,654474381058613
0,71561430445123
0,776217591282841
0,835429336900555
0,892409583767989
0,946356443831794
0,996526360690505
1,04225063818771
1,08294765549294
1,1181305133184
1,14741018530531
1,17049455641444
1,18718399220911
1,19736427926599
1,20099789355862
1,1981145835144
1,18880219815795
1,17319855623175
1,15148495409095
1,1238816682206
1,09064554567348
1,05206951695137
1,00848363445399
0,960257055997955
0,907800272877002
0,851566834987973
0,792053854529017
0,72980067040468
0,665385217236172
0,599417849780711
0,532532606073791
0,465376129170175
0,39859468670754
0,332819910335515
0,268654007917009
0,206655269826225
0,147324692067865
0,0910944747737108
0,0383190320394177
-0,0107310199540342
-0,0558716294611948
-0,0970047764344958
-0,134114795210411
-0,167261894655683
-0,196573370122197
-0,222233108743864
-0,244470046177217
-0,263546238056814
-0,279745166960805
-0,293360823119897
-0,304687984972385
-0,314013996085946
-0,321612200534978
-0,327737071281052
-0,332620955370093
-0,3364722730446
-0,339474949308727
-0,341788826937806
-0,343550807301034
-0,344876485035888
-0,345862078303543
-0,346586500863644
-0,347113468408537
-0,347493573233173
-0,347766293623565
-0,347961924490124
-0,348103423104486
-0,348208159604581
-0,348289549249989
-0,348358526444904
-0,348424803998417
-0,348497849535753
-0,348587508224237
-0,348704209478731
-0,348858715915397
-0,349061404577122
-0,349321110687376
-0,349643608863144
-0,350029850830217
-0,350474116909306
-0,350962265807167
-0,351470279407974
-0,351963293548085
-0,352395281211872
-0,352709512150349
-0,352839855553487
-0,352712924602121
-0,352250989388892
-0,351375514333873
-0,350011114417974
-0,348089677339469
-0,345554370867302
-0,342363249329632
-0,338492191490143
-0,333936943004068
-0,328714097104744
-0,322860922361425
-0,316434029960612
-0,309506958099848
-0,302166830531566
-0,294510313469901
-0,286639144395211
-0,27865553383677
-0,270657744876634
-0,262736134984197
-0,254969902855287
-0,247424723099728
-0,240151379222408
-0,233185426594368
-0,226547838722083
-0,220246518456726
-0,214278496574672
-0,20863259777688
-0,203292331514311
-0,198238763139411
-0,193453139059652
-0,188919075294778
-0,18462416836373
-0,180560945810669
-0,176727135524352
-0,173125292812363
-0,169761876883688
-0,166645909780439
-0,16378737783385
-0,161195546846016
-0,158877357265588
-0,156836046048153
-0,155070110206864
-0,153572686957681
-0,152331380934392
-0,151328524693808
-0,150541818751155
-0,149945265298473
-0,149510288213717
-0,149206922500269
-0,149004959217641
-0,148874946320633
-0,148788969655773
-0,148721168727667
-0,148647975393046
-0,14854809664819
-0,148402291781785
-0,148193016273777
-0,147904017874635
-0,147519973002552
-0,1470262439065
-0,146408819904685
-0,145654481384612
-0,144751195859843
-0,143688724374427
-0,142459387344713
-0,141058914595907
-0,139487287634176
-0,137749474880148
-0,13585596370116
-0,133823006355221
-0,13167251934458
-0,129431604966356
-0,127131697294511
-0,124807369126703
-0,12249486825379
-0,120230477606242
-0,118048811775745
-0,115981170356751
-0,114054065606705
-0,11228802838491
-0,110696773414463
-0,109286774873558
-0,10805726896783
-0,107000664839357
-0,106103312225114
-0,10534654687354
-0,104707915386249
-0,104162471622311
-0,103684037859645
-0,103246335215094
-0,102823908099155
-0,102392794450857
-0,10193092434852
-0,101418260976432
-0,100836726662901
-0,100169979654795
-0,0994031221733175
-0,0985224254231339
-0,0975151521182252
-0,0963695422000696
-0,0950750042974526
-0,0936225265141692
-0,092005288363205
-0,0902194245180654
-0,088264863852062
-0,0861461471321714
-0,083873116045915
-0,0814613665958768
-0,0789323716383173
-0,0763131999426448
-0,0736357907297404
-0,0709357806288176
-0,068250920948569
-0,0656191633311056
-0,0630765274628757
-0,0606548920332702
-0,0583798667628434
-0,0562689071111587
-0,0543298234501425
-0,0525598134327329
-0,050945111628707
-0,0494613068465667
-0,0480743284686299
-0,0467420525983752
-0,0454164310769615
-0,0440460055507524
-0,0425786381985633
-0,040964273207075
-0,0391575400604124
-0,0371200216630391
-0,0348220362123248
-0,0322438195567812
-0,0293760413608892
-0,0262196399581875
-0,0227850129996887
-0,0190906496486589
-0,015161331132942
-0,011026056631339
-0,00671586836187093
-0,00226175208654239
0,00230722291739164
0,00696538591497377
0,0116914668347781
0,0164690608369112
0,021286545993668
0,0261364928368724
0,0310146483121726
0,0359186124818949
0,0408463511839413
0,0457946997352124
0,0507580108297546
0,0557270842607629
0,0606884885406582
0,0656243473073249
0,0705126199478234
0,0753278599450567
0,0800423900887126
0,0846277947525512
0,089056599345797
0,0933039884290447
0,0973494084775318
0,101177909410117
0,104781100094342
0,108157625338875
0,111313112569985
0,114259582035395
0,11701436097795
0,119598585751213
0,122035412504356
0,12434808358158
0,126558010814797
0,128683037077199
0,130736023734962
0,132723885033339
0,134647153217491
0,136500113464772
0,13827149934456
0,139945691694892
0,141504320675891
0,142928136124912
0,144198988242024
0,145301751150942
0,146226026858914
0,146967486211831
0,147528734895637
0,147919633646119
0,148157048936725
0,148264059299807
0,14826868880424
0,148202278821237
0,148097638641893
0,147987132036147
0,14790085912512
0,147865080801045
0,147901007587682
0,148024038738304
0,148243493900497
0,148562832999952
0,148980314458602
0,149490001806117
0,150082997887138
0,150748767152874
0,151476401629598
0,152255695539479
0,153077916233344
0,153936192847719
0,154825485670429
0,155742144476059
0,15668310876674
0,157644842478658
0,158622126480442
0,159606851042677
0,160586955455077
0,16154565259463
0,162461053157126
0,163306269643235
0,164050037060155
0,164657839689985
0,165093485500623
0,16532102618381
0,165306885432549
0,165022034054085
0,164444040109553
0,163558826379631
0,162361985761368
0,160859536153884
0,159068037289591
0,157014039414447
0,154732883734046
0,152266923035881
0,149663274038972
0,146971247470385
0,144239625137069
0,14151396381438
0,138834103128773
0,136232039389492
0,133730301007197
0,131340926034861
0,129065101287312
0,126893478547382
0,124807139661042
0,122779141752725
0,120776538851002
0,118762748850835
0,116700116224272
0,114552511909844
0,112287812368252
0,109880109388533
0,107311519879841
0,104573489300714
0,101667512040356
0,0986052253161151
0,0954078682985203
0,0921051335611959
0,0887334719359622
0,0853339429174318
0,0819497294687546
0,0786234571270438
0,0753944715614292
0,0722962352176184
0,0693540017766954
0,0665829164230755
0,0639866704825697
0,0615568113148821
0,059272773481574
0,0571026567189368
0,0550047321391808
0,052929612918002
0,0508229822278689
0,048628732294615
0,0462923370430887
0,0437642593753127
0,0410031847533191
0,0379788766795253
0,0346744672949556
0,0310880270541959
0,0272332996354978
0,02313953938147
0,0188504452456608
0,0144222435676266
0,00992102780715232
0,00541951251740485
0,000993397654025787
-0,00328243524060052
-0,00733766331807601
-0,0111099735865053
-0,014548021170237
-0,0176137267348271
-0,0202837922712535
-0,0225503691007541
-0,0244208699556732
-0,0259169737724242
-0,0270729231061319
-0,0279332560336333
-0,0285501440854614
-0,0289805233039567
-0,0292832062947861
-0,0295161497996389
-0,0297340266258858
-0,0299862155490751
-0,0303152815645195
-0,0307559754417359
-0,0313347398702729
-0,0320696730534981
-0,0329708723469556
-0,0340410623499295
-0,0352764046976578
-0,0366673904438268
-0,0381997291141927
-0,0398551691518507
-0,0416122097414955
-0,0434466908497439
-0,0453322735527975
-0,04724084358773
-0,0491428852767739
-0,0510078791176446
-0,0528047739263444
-0,0545025738630085
-0,0560710633922522
-0,0574816712598885
-0,0587084505500075
-0,0597291286551408
-0,0605261612900614
-0,0610877109711215
-0,0614084644271032
-0,0614902062539845
-0,0613420778820039
-0,0609804707598947
-0,0604285289735577
-0,0597152669216856
-0,0588743394102548
-0,0579425315911247
-0,0569580616655831
-0,0559588076956936
-0,0549805793035448
-0,0540555543935368
-0,0532109901424875
-0,0524682970855988
-0,0518425368637618
-0,0513423704080512
-0,0509704469210639
-0,0507241881488145
-0,0505968901937766
-0,0505790394027754
-0,0506597218874057
-0,0508279995762714
-0,0510741299708976
-0,0513905216423218
-0,051772341775941
-0,0522177236277502
-0,0527275579524171
-0,0533048901706505
-0,0539539810235179
-0,0546791196501366
-0,0554833016800064
-0,0563668990497557
-0,0573264515579508
-0,0583537023427726
-0,0594349811168961
-0,0605510115820957
-0,0616771852554485
-0,0627843057323349
-0,0638397683465238
-0,0648091034354861
-0,0656577799933445
-0,0663531429318687
-0,0668663433889529
-0,0671741186306042
-0,0672602863342996
-0,0671168367929253
-0,06674453435503
-0,0661529741246381
-0,065360078883359
-0,0643910614674769
-0,0632769163916552
-0,0620525385322133
-0,0607545937166717
-0,059419284158028
-0,0580801596439132
-0,0567661227039117
-0,0554997629503459
-0,0542961334078775
-0,0531620515394699
-0,0520959720043519
-0,0510884393830874
-0,0501230898559932
-0,0491781337266783
-0,0482282181829507
-0,0472465439228406
-0,0462070918584944
-0,0450868081833253
-0,0438675981324195
-0,0425379906544433
-0,0410943572414592
-0,0395415969859624
-0,0378932348197441
-0,0361709186369256
-0,0344033411836381
-0,0326246516726385
-0,0308724574630721
-0,0291855455141778
-0,0276014745671418
-0,0261542005433097
-0,0248718984438029
-0,0237751336728156
-0,0228755145993117
-0,0221749273309559
-0,0216654149486948
-0,0213297192490617
-0,0211424562690841
-0,0210718508217992
-0,0210819132444228
-0,0211349068626536
-0,0211939300929871
-0,0212254249102093
-0,0212014250111747
-0,0211013728128344
-0,0209133637978217
-0,0206347178921333
-0,0202718277865944
-0,0198392897621838
-0,0193583794462432
-0,0188549884837932
-0,0183571839506681
-0,0178925864155533
-0,017485781712519
-0,0171559835813635
-0,0169151486106117
-0,0167667120691036
-0,016705065353652
-0,0167158364543304
-0,0167769685726914
-0,0168605242193092
-0,0169350783806947
-0,0169685102207363
-0,0169309631289313
-0,0167977215503946
-0,0165517523187633
-0,0161856788006318
-0,0157029969910413
-0,0151184008468617
-0,0144571552271601
-0,0137535331458985
-0,0130484132303051
-0,0123862066866494
-0,0118113443364546
-0,0113645980029804
-0,011079532582857
-0,0109793832009461
-0,0110746255424516
-0,011361458430275
-0,0118213496121564
-0,0124217137567977
-0,0131177023697335
-0,0138549959455757
-0,0145734064849732
-0,0152110303959578
-0,0157086434818795
-0,0160140054226176
-0,0160857430911682
-0,0158965103483569
-0,0154351745810959
-0,0147078531046239
-0,0137377099335549
-0,0125635183714115
-0,0112370898006052
-0,00981975635830708
-0,00837816787602768
-0,00697971574406085
-0,00568792409490856
-0,00455814974521126
-0,00363390673174838
-0,00294408122578412
-0,00250123224604033
-0,00230108871470655
-0,00232326088681922
-0,00253309148424686
-0,00288448636431392
-0,00332349294281212
-0,00379234237253834
-0,00423364247120885
-0,00459440449099442
-0,00482960785374566
-0,00490505070223848
-0,00479929654953774
-0,00450460298080887
-0,00402680083802028
-0,00338417480368987
-0,00260547208980058
-0,00172722913906108
-0,000790652092366877
0,000161687918907733
0,00108908015027087
0,00195557379929544
0,00273234238136691
0,00339935610017499
0,00394626835606933
0,00437249027406074
0,00468649385867272
0,0049044445025394
0,00504831239312617
0,00514364628055961
0,00521720992309198
0,00529468076038084
0,00539859293991606
0,00554667511258014
0,00575069097497647
0,0060158416112066
0,00634073797966396
0,00671790392801892
0,00713472896501267
0,00757475892290547
0,00801919367030731
0,00844845507651431
0,00884369506504875
0,00918813124239706
0,00946812374338645
0,00967393839869861
0,0098001746188891
0,00984586809093968
0,00981430542471221
0,00971260798158946
0,00955115378198576
0,00934290918736432
0,00910273655888407
0,00884673172454073
0,00859162799921626
0,00835428422984784
0,00815125556683832
0,00799842987177538
0,00791070185278415
0,00790165250647432
0,00798320370818399
0,00816522643074434
0,00845509488428751
0,00885719595458971
0,00937242133764096
0,0099976862143979
0,010725530761671
0,0115438672918266
0,012435934925683
0,0133805149374742
0,0143524435616169
0,0153234363250681
0,0162632108847936
0,017140866420267
0,0179264497731426
0,0185926146248602
0,0191162627102472
0,0194800474449183
0,0196736217312809
0,0196945234445124
0,0195486136481842
0,0192500123540028
0,0188205123186246
0,0182884900275422
0,0176873713664888
0,0170537442925914
0,0164252390794968
0,0158383159977603
0,015326108960785
0,0149164710048531
0,0146303536853638
0,0144806288242972
0,014471429442002
0,0145980498681093
0,014847405851104
0,0151990171186282
0,0156264401446275
0,0160990503574194
0,0165840525279593
0,0170485867411009
0,017461795510178
0,017796724777244
0,0180319467082306
0,0181528136138934
0,0181522781647125
0,0180312431061974
0,0177984320023715
0,0174697992572712
0,0170675214378291
0,0166186316631385
0,0161533740563649
0,0157033657827167
0,015299660252777
0,0149708070666136
0,0147410027488077
0,014628421831235
0,0146438107949088
0,0147894181196293
0,015058322291859
0,0154342061254484
0,0158916099925641
0,0163966785531316
0,0169083952210063
0,0173802763073143
0,01776247293504
0,0180042044532134
0,018056423356087
0,0178745902530991
0,0174214199644251
0,0166694481873746
0,015603264109912
0,0142212592199904
0,0125367573250506
0,0105784156639071
0,00838982147800295
0,00602825110650046
0,00356260746035944
0,00107060367371326
-0,00136468757670182
-0,0036587518990828
-0,00572981103534323
-0,00750302491923539
-0,00891446750745016
-0,00991462747997351
-0,0104712034101292
-0,0105709982073091
-0,010220767895748
-0,00944694226339059
-0,00829420570436639
-0,00682300091658225
-0,00510609086319264
-0,00322438018851608
-0,00126225116592827
0,000697293075409849
0,0025773670226509
0,00431151498848036
0,00584731373491671
0,00714902724858206
0,00819913800783979
0,00899865508142431
0,0095661834968564
0,00993582556010247
0,0101540668819602
0,010275871742792
0,010360268666178
0,0104657433324284
0,0106457693607373
0,0109447967529754
0,01139498352318
0,0120139005488628
0,0128033669596061
0,0137494887620318
0,0148238831746861
0,0159859820925477
0,0171862270546536
0,018369901183836
0,0194812961370447
0,020467887803566
0,0212841953974741
0,0218950247243864
0,0222778459151493
0,0224241249899407
0,0223395120290686
0,022042879900224
0,0215642993334206
0,0209421213582691
0,0202194099213082
0,0194400201011299
0,0186446464774031
0,0178671693759166
0,0171316035991629
0,0164499065331235
0,0158208339118761
0,0152299474661563
0,0146507858086926
0,0140471156627629
0,0133760924605557
0,0125920844913896
0,0116508591763051
0,0105137981975121
0,0091518026160497
0,00754857030380331
0,00570297425682016
0,00363033795149942
0,00136248753061085
-0,00105344641536232
-0,00355740966906135
-0,0060798302948339
-0,008545814706885
-0,0108798396631662
-0,0130106091254307
-0,0148757331403229
-0,0164258996232435
-0,0176282477449948
-0,018468710222974
-0,0189531663517335
-0,0191073321666938
-0,0189754022085641
-0,0186175423049468
-0,0181064085454763
-0,0175229289429496
-0,0169516272647259
-0,0164757908022623
-0,0161727847521578
-0,0161097962827518
-0,0163402537235875
-0,0169011141739431
-0,017811150690964
-0,0190703029410436
-0,0206600877338972
-0,0225450027763858
-0,024674802198525
-0,0269874788539738
-0,0294127580317747
-0,0318758907532877
-0,03430153202584
-0,0366174990412445
-0,0387582244240263
-0,0406677478426194
-0,042302122997938
-0,0436311535975034
-0,04463940909098
-0,0453265067369539
-0,0457066795112251
-0,0458076785098747
-0,0456690833284601
-0,0453401142573366
-0,0448770561399943
-0,0443404155998397
-0,0437919412251562
-0,0432916403279054
-0,0428949259449976
-0,0426500236185189
-0,0425957587874517
-0,0427598319857657
-0,0431576701892702
-0,0437919185383607
-0,0446526076247794
-0,0457179983837744
-0,0469560706507896
-0,0483265845122447
-0,0497836079082711
-0,0512783720940428
-0,052762291132095
-0,0541899650414923
-0,0555219805407168
-0,0567273298970007
-0,0577852876587122
-0,0586866164831297
-0,0594340152759175
-0,0600417728465396
-0,06053464477274
-0,0609460261649823
-0,0613155441927884
-0,0616862373741097
-0,0621015200537589
-0,0626021473315356
-0,0632233962130667
-0,0639926626156604
-0,0649276420803392
-0,0660352170387952
-0,0673111189012661
-0,068740373499837
-0,0702984785573125
-0,0719532068603993
-0,0736668832895276
-0,0753989515519717
-0,0771086299724581
-0,0787574560845535
-0,0803115366945476
-0,0817433516210546
-0,0830330022674315
-0,0841688463937028
-0,0851475131897765
-0,0859733431350775
-0,086657340753001
-0,0872157615134888
-0,0876684742891531
-0,0880372468032434
-0,0883440936726504
-0,0886098066120423
-0,0888527569851256
-0,0890880257704754
-0,0893268792295248
-0,0895765741870226
-0,0898404483473215
-0,0901182312218605
-0,0904065015844465
-0,0906992181809154
-0,090988260714122
-0,0912639358090588
-0,0915154247136858
-0,0917311725106869
-0,0918992390775555
-0,0920076468090324
-0,092044766905068
-0,0919997835566065
-0,0918632636181027
-0,0916278396635682
-0,0912889891117985
-0,0908458646948346
-0,0903021058192766
-0,0896665401852627
-0,088953673847362
-0,0881838683100383
-0,0873831165762914
-0,0865823561383304
-0,0858162940490929
-0,0851217642703639
-0,0845356861401131
-0,0840927399675717
-0,0838229161592182
-0,083749122934076
-0,0838850506143136
-0,0842334850652455
-0,0847852383024504
-0,0855188217547748
-0,0864009303260649
-0,0873877380694872
-0,0884269352077556
-0,0894603682867121
-0,0904270873788427
-0,0912665627384767
-0,0919218129915192
-0,0923421907284643
-0,0924855998299219
-0,0923199699744638
-0,0918238831541485
-0,0909863281554759
-0,0898056437944388
-0,0882877915076762
-0,0864441640561373
-0,0842891820407788
-0,0818379480056025
-0,0791042160451202
-0,0760988929906523
-0,0728292186498108
-0,0692986833984871
-0,0655076405023708
-0,0614544684618529
-0,0571370468060907
-0,0525542381726551
-0,0477070297721145
-0,0425989854194216
-0,0372356987854272
-0,0316230189182281
-0,0257639356706388
-0,0196541567280307
-0,013276567264957
-0,0065949232104715
0,000452726181764786
0,00796027687206145
0,0160587909207404
0,0249200071421421
0,0347574968190591
0,0458249304101967
0,0584110900557956
0,0728314796938561
0,0894166347601902
0,108497497851636
0,130388484175781
0,155369089209358
0,183665070177469
0,215430345259129
0,250730787160122
0,289531034216078
0,331685302744991
0,376932966274481
0,424899384582307
0,475102137961103
0,526962473803066
0,579821429840644
0,632959787729232
0,68562075662768
0,737034109439596
0,786440408874021
0,833113973793785
0,876383347792632
0,915648232980952
0,950392126660629
0,980190224973764
1,00471250946618
1,02372228157004
1,03707072826772
1,04468836432773
1,04657438198702
1,04278503380699
1,03342217233377
1,01862297311961
0,998551685507381
0,973394005420193
0,943354368877138
0,908656150389487
0,869544444353861
0,826290836671897
0,779199361291103
0,728612700145456
0,674917636222095
0,61854881172242
0,559989972125358
0,499772080688109
0,438467948520607
0,37668332022742
0,315044658994531
0,254184162288941
0,194722786189903
0,137252242687576
0,0823170454252776
0,0303977071074985
-0,0181038650081338
-0,0628758646909033
-0,103704264885867
-0,140476221990546
-0,173179031029816
-0,201894744698837
-0,226790842478284
-0,248107574331383
-0,266142790516291
-0,281235193126001
-0,293746999883807
-0,304046995914745
-0,312494869523048
-0,319427592944427
-0,325148431751349
-0,329918962592195
-0,333954264657996
-0,337421241712045
-0,340439842995299
-0,343086794493592
-0,3454013351111
-0,347392379772012
-0,349046504041577
-0,350336159827038
-0,351227583392016
-0,351687937637914
-0,351691331261796
-0,351223468664458
-0,350284797361199
-0,348892126302333
-0,347078782658753
-0,34489345198741
-0,342397904806261
-0,339663851003887
-0,336769183225975
-0,333793873638147
-0,330815778270777
-0,32790658275708
-0,325128095889628
-0,322529065751262
-0,320142659411791
-0,317984712709272
-0,316052822261534
-0,314326317748496
-0,312767118664549
-0,311321445838967
-0,309922324119141
-0,308492778910017
-0,306949596542425
-0,305207487952205
-0,303183468655153
-0,300801247529555
-0,297995404705843
-0,294715136962318
-0,290927359087597
-0,286618972681857
-0,281798149878122
-0,276494527552441
-0,270758265601133
-0,264657987797427
-0,258277691538987
-0,251712778943066
-0,245065421388607
-0,238439518105671
-0,231935542563549
-0,225645585124419
-0,219648894679035
-0,214008195375942
-0,20876700824045
-0,203948144167121
-0,199553458637775
-0,19556487481527
-0,191946596442921
-0,188648351502575
-0,185609437931051
-0,182763289174765
-0,180042244159607
-0,177382195919824
-0,174726806599546
-0,172031012706577
-0,169263600597527
-0,166408703795179
-0,16346615524501
-0,160450712602016
-0,15739025648578
-0,154323133952381
-0,151294876734341
-0,148354561832055
-0,145551098187785
-0,142929716680296
-0,140528912606802
-0,138378043070334
-0,136495720593315
-0,134889074314602
-0,133553877379495
-0,132475469777131
-0,131630345623116
-0,130988227557925
-0,130514421944362
-0,130172238781637
-0,129925269819369
-0,129739345639606
-0,129584034388142
-0,129433597018491
-0,129267371248383
-0,129069613463364
-0,128828879266818
-0,128537064664225
-0,128188257416786
-0,12777755971976
-0,127300038389616
-0,126749938077152
-0,126120258995779
-0,12540275684807
-0,124588373401819
-0,123668056407347
-0,122633882051943
-0,121480356312858
-0,120205746906367
-0,11881328741537
-0,117312100620744
-0,115717708615023
-0,114052031175375
-0,112342818059676
-0,110622511487246
-0,108926587525569
-0,107291474818846
-0,105752191603454
-0,104339873504229
-0,103079382308316
-0,101987188145381
-0,101069703843542
-0,100322221666735
-0,0997285613548485
-0,0992614875425793
-0,0988838982651862
-0,0985507286874492
-0,0982114599378938
-0,0978130761273307
-0,0973032768888259
-0,0966337307850715
-0,0957631483351591
-0,0946599627216025
-0,0933044307298845
-0,0916900043861072
-0,0898238723098691
-0,0877266255779133
-0,0854310618627045
-0,0829801997571832
-0,0804246283798836
-0,0778193620558802
-0,0752204029814926
-0,0726812341754201
-0,0702494694296398
-0,0679638761745218
-0,0658519619850351
-0,0639282776226247
-0,0621935416426575
-0,0606346369318199
-0,0592254717998395
-0,0579286413010711
-0,0566977721544282
-0,0554803904874714
-0,0542211186087783
-0,0528649873586077
-0,0513606455698401
-0,0496632581542505
-0,0477369085020047
-0,0455563576004759
-0,0431080588362656
-0,0403903805946669
-0,0374130446175754
-0,0341958426834367
-0,0307667435305187
-0,027159542529454
-0,023411235523808
-0,0195593134275461
-0,0156391746572573
-0,0116818383672146
-0,00771211404845802
-0,00374734458526174
0,000203206492045757
0,00413830339221669
0,00806405263899706
0,0119926613327205
0,0159407561072696
0,0199274089411535
0,0239720327338145
0,0280923129039672
0,0323023313980521
0,0366110176233657
0,0410210292318347
0,0455281273028796
0,0501210688219149
0,0547819980464951
0,0594872808249676
0,0642086952197753
0,0689148701042274
0,0735728521367322
0,0781496809706103
0,0826138621646662
0,0869366453848196
0,0910930399924092
0,0950625282043195
0,0988294648701294
0,10238317973723
0,1057178204649
0,108831990860476
0,111728247728831
0,114412521183714
0,11689351778185
0,11918215469905
0,12129105813431
0,123234142266851
0,125026268607175
0,12668297137315
0,128220224231786
0,129654218389092
0,131001122009675
0,132276796037749
0,133496450843388
0,134674240367218
0,135822803985486
0,136952779319438
0,138072320060586
0,139186660138859
0,140297768223227
0,14140413422867
0,142500722267214
0,143579113047539
0,144627844204998
0,145632940885072
0,146578612808391
0,147448079537778
0,148224474301217
0,148891769519415
0,149435664888218
0,149844381614245
0,150109313876661
0,150225500040633
0,15019189039652
0,150011403886902
0,149690781962507
0,14924026192517
0,148673103717495
0,148005012137395
0,14725350041471
0,146437240847857
0,14557544401936
0,144687300691392
0,143791510650122
0,142905911645538
0,142047210269897
0,141230806188988
0,140470692543486
0,139779409223629
0,139168022559731
0,138646104870757
0,138221690141437
0,137901187470828
0,137689241252122
0,137588535609746
0,137599549621962
0,137720278538718
0,137945943805794
0,13826872061068
0,138677515354637
0,139157826592568
0,139691721386778
0,140257954675341
0,140832252332995
0,141387769404541
0,141895724028674
0,142326195388137
0,142649061424122
0,14283503978879
0,142856784457955
0,142689981495904
0,142314381409284
0,141714703148515
0,140881346572881
0,139810856470845
0,138506091994905
0,136976070328277
0,135235471916961
0,133303815634314
0,131204334555545
0,128962605036993
0,126605001912358
0,124157069162865
0,121641906875386
0,119078680428663
0,116481355771623
0,113857755046808
0,11120900985657
0,108529465978512
0,105807064694929
0,10302419393968
0,100158969428551
0,0971868742607857
0,0940826575824836
0,0908223710809487
0,0873854082093922
0,0837564064582804
0,0799268784065132
0,0758964525669516
0,0716736293801989
0,0672759895155551
0,0627298286764455
0,0580692327921349
0,0533346467885514
0,0485710262117074
0,0438256910176574
0,0391460225099614
0,034577156056641
0,0301598227758877
0,0259284828559241
0,0219098721831521
0,0181220541232941
0,0145740318137938
0,0112659359048076
0,00818976143887728
0,00533058848384455
0,00266818726254167
0,000178882280976595
-0,00216246668532602
-0,00438051475490021
-0,0064976560622042
-0,00853254880142004
-0,0104990430512619
-0,0124055808090862
-0,0142551004541749
-0,0160454387507181
-0,017770185380955
-0,0194199108127514
-0,0209836604580866
-0,0224505886549469
-0,0238115962957147
-0,0250608365472201
-0,0261969639120933
-0,0272240219095582
-0,0281518923904938
-0,0289962627761276
-0,029778103888051
-0,0305226878256021
-0,0312582098887166
-0,0320141083928333
-0,0328191992477226
-0,0336997568165057
-0,0346776778261449
-0,0357688606544371
-0,036981918544059
-0,0383173231739195
-0,039767046158997
-0,0413147324452504
-0,0429364035930801
-0,0446016530658818
-0,0462752623564354
-0,047919138358224
-0,0494944507652349
-0,0509638349412849
-0,0522935214802522
-0,053455258880062
-0,0544279099005613
-0,0551986242810798
-0,0557635189227698
-0,0561278293543166
-0,0563055310015557
-0,0563184629500078
-0,0561950181890803
-0,0559684905506008
-0,0556751879593515
-0,0553524329778981
-0,0550365743223536
-0,0547611271513504
-0,0545551461784102
-0,0544419153607658
-0,0544380128605755
-0,0545527822591154
-0,0547882129050313
-0,0551392059538405
-0,0555941800968135
-0,0561359536906751
-0,056742829022777
-0,0573898001567715
-0,0580498079760502
-0,0586949738858761
-0,0592977558022299
-0,0598319849692659
-0,0602737579495889
-0,0606021731040906
-0,0607999134400909
-0,0608536866931599
-0,0607545382740088
-0,0604980531094137
-0,060084458959226
-0,0595186374065529
-0,0588100408024533
-0,0579725055577172
-0,0570239459152829
-0,0559859091714963
-0,0548829742740876
-0,0537419814424711
-0,0525910908395844
-0,0514586827401527
-0,050372128818628
-0,0493564823514471
-0,0484331522864635
-0,047618640041165
-0,0469234266295868
-0,0463510995491509
-0,0458978027940304
-0,045552079037784
-0,0452951509311447
-0,045101659960298
-0,0449408483905547
-0,044778135214323
-0,0445770036427311
-0,0443010886725279
-0,0439163314399104
-0,0433930548124625
-0,0427078135916965
-0,0418448834479577
-0,0407972749621485
-0,0395671914601672
-0,0381658893854719
-0,0366129446104565
-0,0349349737313232
-0,0331639022027902
-0,0313349074627917
-0,0294841918023214
-0,0276467541831822
-0,0258543311038261
-0,0241336636345026
-0,0225052217920005
-0,0209824805053192
-0,0195717964720334
-0,0182728859268063
-0,0170798537598185
-0,0159826786827958
-0,0149690210492246
-0,0140261926819274
-0,0131431139777415
-0,0123120838207189
-0,011530202518237
-0,0108003158863645
-0,0101313875304054
-0,00953825314713897
-0,00904076153480251
-0,00866235785410232
-0,00842821143351189
-0,00836302933125489
-0,00848872483555491
-0,00882212490970326
-0,00937290107499365
-0,0101418943726417
-0,0111199779153223
-0,0122875622691546
-0,0136148024510683
-0,0150625142336941
-0,0165837556571871
-0,0181259809926946
-0,0196336325768143
-0,0210510039612039
-0,022325188001325
-0,0234089172094527
-0,0242631111873209
-0,024858966586269
-0,0251794570732085
-0,0252201517495016
-0,024989307254264
-0,0245072378721034
-0,0238050158016782
-0,0229225968681938
-0,0219065023992445
-0,0208072133702015
-0,0196764466844787
-0,0185644849644665
-0,017517720754251
-0,0165765547423783
-0,015773757486203
-0,0151333676660414
-0,0146701601231983
-0,0143896769122292
-0,0142887773284662
-0,0143566310676878
-0,0145760544014193
-0,0149250740292223
-0,0153785976779162
-0,0159100744168206
-0,0164930401266753
-0,0171024629291437
-0,0177158276131033
-0,0183139247078716
-0,0188813363924421
-0,019406635583993
-0,0198823342786285
-0,0203046311664585
-0,020673015845156
-0,0209897875588562
-0,0212595408903834
-0,0214886603807699
-0,0216848523581457
-0,0218567272033534
-0,0220134308818109
-0,0221643126757864
-0,0223186081122
-0,0224851131219234
-0,0226718278109975
-0,0228855555690581
-0,0231314546706381
-0,0234125535305542
-0,0237292555499322
-0,0240788729661426
-0,0244552393515733
-0,0248484556861704
-0,0252448240403268
-0,0256270152636229
-0,0259745028514343
-0,0262642752469176
-0,0264718148573336
-0,0265723061703484
-0,0265420100772923
-0,0263597195079326
-0,0260081952083885
-0,0254754720633805
-0,0247559271657808
-0,023851011487628
-0,0227695671790617
-0,0215276809303748
-0,020148058381361
-0,0186589424120174
-0,0170926360581007
-0,0154837253430527
-0,0138671252529777
-0,0122760906610158
-0,0107403411957978
-0,00928444383625533
-0,00792657945164146
-0,00667779078283142
-0,0055417717119826
-0,00451521418482699
-0,00358868351559777
-0,00274794900574338
-0,00197565867512544
-0,00125321789663287
-0,000562714484057372
0,000111271075663592
0,000780121534346228
0,00145003318732789
0,00212135465740089
0,00278846598299502
0,00344020317463319
0,00406078645847945
0,00463116736408252
0,00513067443625505
0,00553881274847958
0,00583706073248271
0,00601051003161702
0,00604920985208821
0,00594910510172908
0,00571249483350311
0,00534798075018644
0,0048699207729343
0,00429744586132737
0,0036531355020747
0,00296147527789348
0,00224723626857959
0,00153391942619633
0,00084239837082233
0,000189872391203857
-0,000410790053024839
-0,000951275273716887
-0,00142761506259567
-0,00183958414400342
-0,00218978052936957
-0,00248249336137398
-0,00272248099638079
-0,00291378842338594
-0,00305872723442232
-0,00315712394344091
-0,00320591523855735
-0,00319913440062871
-0,00312829483341558
-0,0029831380266395
-0,00275267781275057
-0,00242644371457987
-0,00199580607173614
-0,00145525623004114
-0,000803517114103392
-4,43727165644822E-05
0,000812871850802457
0,00175335720092547
0,00275708493809199
0,00379976507553747
0,00485404288397909
0,00589102045114114
0,00688196325536693
0,00780006611461097
0,00862214707807253
0,00933014251625828
0,00991229122650263
0,0103639184770171
0,0106877605359698
0,0108938039599117
0,010998649033848
0,0110244406128006
0,0109974397053504
0,0109463333871046
0,0109003974678029
0,0108876347980884
0,0109330119005237
0,011056908045745
0,0112738748773985
0,0115917825370996
0,0120114016747809
0,0125264416014463
0,0131240351443511
0,0137856323655254
0,0144882399474404
0,0152059221918891
0,0159114643669823
0,0165780903496215
0,0171811245318836
0,0176994928020463
0,0181169686843059
0,0184230877332832
0,0186136749690488
0,0186909552498174
0,0186632435012849
0,0185442390508161
0,0183519742674261
0,0181074906641686
0,0178333340391033
0,0175519728680673
0,0172842500006421
0,0170479762021317
0,0168567651031017
0,0167191930349699
0,0166383449516878
0,0166117805107125
0,0166319241946992
0,0166868521715687
0,0167614186686476
0,0168386382078111
0,0169012192371012
0,0169331312086241
0,0169210822966623
0,0168557893422711
0,0167329352364121
0,0165537310304128
0,0163250291698386
0,0160589683087666
0,015772166701642
0,0154845173915878
0,0152176714808528
0,0149933230186733
0,014831428153473
0,0147485004778799
0,0147561229272272
0,0148598040177619
0,015058283296601
0,0153433591422136
0,0157002736890767
0,0161086474795453
0,0165439135575232
0,0169791604123049
0,0173872585516938
0,0177431193149308
0,0180259189815639
0,0182211177294795
0,0183221120486699
0,0183313804713687
0,0182610146009086
0,0181325682824384
0,0179762045593057
0,017829169483698
0,0177336703787458
0,0177342802629098
0,0178750265860857
0,0181963484911683
0,0187321204865414
0,0195069405589623
0,0205338672526675
0,0218127638709512
0,0233293705175011
0,0250551787272905
0,0269481321441192
0,0289541236358306
0,0310092081204686
0,0330424047132431
0,0349789247726793
0,0367436364694223
0,0382645633250911
0,0394762144794544
0,0403225580108614
0,0407594742459794
0,0407565616345615
0,0402982107224301
0,0393839088851265
0,0380277864320991
0,0362574601623074
0,0341122704558886
0,0316410400255974
0,0288995047495944
0,0259475785078993
0,0228466144726183
0,0196568154211029
0,0164349266488533
0,0132323187878596
0,0100935365352734
0,00705535536000775
0,00414635415133371
0,00138697970038894
-0,00120994917166926
-0,00363837264228037
-0,00589784702960291
-0,00799222824469352
-0,00992828406330341
-0,0117143336245734
-0,013359002818954
-0,0148701699491402
-0,0162541584424291
-0,017515213758158
-0,0186552812229068
-0,0196740815035722
-0,0205694618049614
-0,0213379845082425
-0,0219757015224146
-0,022479052549709
-0,0228458191291177
-0,0230760638154571
-0,0231729852193694
-0,0231436247004869
-0,0229993690391178
-0,0227562049682914
-0,0224346955519779
-0,022059664342948
-0,0216595903414308
-0,0212657341098714
-0,0209110320983279
-0,0206288113371284
-0,0204513892879407
-0,0204086329435664
-0,0205265565924059
-0,0208260385058187
-0,0213217329398973
-0,0220212453186415
-0,022924625612208
-0,0240242183779191
-0,0253048885882175
-0,0267446213346278
-0,028315472008972
-0,029984822961191
-0,031716884192715
-0,033474360551026
-0,0352201971403625
-0,036919308979385
-0,0385402007316112
-0,0400563876861777
-0,0414475398013971
-0,0427002859346766
-0,0438086344890008
-0,0447739884618634
-0,0456047560267762
-0,0463155809239581
-0,0469262387197201
-0,0474602641386923
-0,0479433900430255
-0,0484018893275861
-0,0488609163718578
-0,0493429444377288
-0,0498663894958934
-0,0504444997505469
-0,0510845742328446
-0,0517875541775476
-0,0525480086093326
-0,0533545119675728
-0,0541903880975086
-0,055034772947227
-0,0558639291927457
-0,0566527309663763
-0,0573762268643227
-0,0580111851215383
-0,058537526600662
-0,0589395589659228
-0,0592069386749335
-0,0593353053605739
-0,0593265546539905
-0,0591887390803479
-0,0589356107657739
-0,0585858426550106
-0,0581619851914384
-0,0576892315243187
-0,0571940751692369
-0,0567029489083834
-0,0562409322869048
-0,0558306075047668
-0,0554911304689896
-0,0552375663087676
-0,0550805181771893
-0,0550260562741371
-0,0550759324491667
-0,0552280461417638
-0,0554771112702886
-0,0558154621291154
-0,0562339301739643
-0,0567227230203532
-0,0572722418543075
-0,0578737830750518
-0,0585200833038374
-0,0592056825322916
-0,0599270966615114
-0,0606828064678706
-0,0614730837577469
-0,0622996860166156
-0,06316545748872
-0,0640738770134493
-0,065028591250503
-0,0660329666990873
-0,0670896860865515
-0,0682004054191473
-0,069365478536292
-0,0705837476104679
-0,071852391762363
-0,0731668225479508
-0,0745206149023837
-0,0759054650976149
-0,0773111728723548
-0,078725652212324
-0,0801349831003391
-0,0815235235527878
-0,0828741060742615
-0,0841683441157313
-0,0853870713573676
-0,0865109292754153
-0,0875211066474954
-0,0884002191376506
-0,0891332991411918
-0,0897088474289264
-0,0901198808011761
-0,090364896117475
-0,0904486627209557
-0,0903827541283932
-0,090185737009163
-0,0898829513772283
-0,0895058400783599
-0,0890908168016835
-0,0886776977957418
-0,0883077604112643
-0,0880215281906354
-0,0878564139900245
-0,087844376149131
-0,0880097551449896
-0,088367457341271
-0,0889216373390764
-0,0896650012500655
-0,0905788114867085
-0,0916336222148091
-0,0927907173996813
-0,0940041651713741
-0,0952233482439973
-0,0963957855311731
-0,097470029551715
-0,0983984113434353
-0,0991394115958288
-0,099659464011299
-0,0999340430500456
-0,099947949808582
-0,0996947817684446
-0,0991756480868511
-0,0983972648197561
-0,0973696265854783
-0,0961034959719443
-0,0946079739477962
-0,0928884101289748
-0,0909448797776502
-0,0887713964639887
-0,0863559496011256
-0,0836813614004869
-0,0807268569166288
-0,0774701438665858
-0,0738897162259145
-0,0699670370831461
-0,0656882300200373
-0,0610449200246104
-0,0560339169074635
-0,0506555249257238
-0,0449103864086377
-0,0387949155494047
-0,0322955390076376
-0,0253821182518938
-0,0180010693994398
-0,0100688048607334
-0,00146618438696945
0,0079653286706669
0,0184251624785855
0,0301522532922625
0,043420423197924
0,0585303743222582
0,0757984014405535
0,0955421841129908
0,11806427061043
0,143634087884011
0,172469484978831
0,204718925054526
0,240445471729681
0,279613662881147
0,322080230043521
0,367589411658777
0,415773337494408
0,466157648778117
0,518172187065513
0,571166259581955
0,624427694738044
0,677204661427879
0,728729058212576
0,778240196391024
0,82500751026277
0,8683511271318
0,907659310067206
0,942402032807744
0,972140237965249
0,996530642841421
1,01532626637409
1,02837313139515
1,03560382687389
1,03702877819323
1,03272615895936
1,02283138149157
1,00752702824252
0,987033942877846
0,961604003205044
0,931514868261099
0,897066750625874
0,858581034599948
0,816400361711797
0,770889653955316
0,722437454155059
0,671456937928046
0,618385992705767
0,563685860018124
0,507837986364189
0,451338910135165
0,394693209453098
0,338404729952224
0,282966484990487
0,228849758616603
0,176493032729062
0,126291397752693
0,0785870893666718
0,0336617257220806
-0,00826929208360398
-0,0470598976911036
-0,0826338401581394
-0,114982541041269
-0,144160501369464
-0,170278571638854
-0,193495507806014
-0,214008310211716
-0,232041877857523
-0,247838508348695
-0,261647738019005
-0,273716953531421
-0,284283123468477
-0,293565904515445
-0,301762280087497
-0,309042796896034
-0,315549382725776
-0,321394660385549
-0,326662620289678
-0,331410477356032
-0,335671515363166
-0,339458711013311
-0,342768927602842
-0,345587471328321
-0,347892809301732
-0,349661255558053
-0,350871438968566
-0,351508375358474
-0,351566976422562
-0,351054842007073
-0,349994201939064
-0,348422900602329
-0,346394352956791
-0,343976444878295
-0,341249402519877
-0,338302712630402
-0,335231235016582
-0,332130705354069
-0,329092876534964
-0,326200584911256
-0,32352304981278
-0,321111717250868
-0,318996939801968
-0,317185744088483
-0,315660876610446
-0,314381241388185
-0,313283753974819
-0,31228654217558
-0,311293331246178
-0,31019876759832
-0,308894366759057
-0,307274724083566
-0,305243604527987
-0,302719532683134
-0,299640536151537
-0,295967751942081
-0,291687682619952
-0,286812980565423
-0,28138173786843
-0,275455358533894
-0,269115181338019
-0,262458099096635
-0,255591477811396
-0,248627713367692
-0,241678772347655
-0,234851047392779
-0,228240818645191
-0,221930555135648
-0,215986218893375
-0,210455656254905
-0,205368081764793
-0,200734586424067
-0,196549539229774
-0,192792703152442
-0,189431856565246
-0,186425699706601
-0,183726832336347
-0,181284611198826
-0,179047730862843
-0,176966414748965
-0,17499415007173
-0,173088946469065
-0,17121413917346
-0,169338790421517
-0,167437765263801
-0,165491569009491
-0,163486033522547
-0,161411929835381
-0,159264567359461
-0,157043418198897
-0,154751781911688
-0,152396484532375
-0,149987588443924
-0,147538078741155
-0,145063488169001
-0,142581426718193
-0,140110992745735
-0,137672058504445
-0,13528444199704
-0,132966996625866
-0,130736667559034
-0,128607576788141
-0,126590205622481
-0,124690742776898
-0,122910657945566
-0,121246545429665
-0,119690261395396
-0,118229353767494
-0,116847758135526
-0,115526709060007
-0,114245796428718
-0,112984083191627
-0,111721195503282
-0,110438299723609
-0,109118892746031
-0,107749351623239
-0,106319213585783
-0,104821185721266
-0,103250911926803
-0,101606550235852
-0,0998882334674671
-0,0980974981174913
-0,0962367689850072
-0,094308979685958
-0,0923173924045297
-0,0902656555007349
-0,0881581072574996
-0,0860003012056696
-0,0837996964966587
-0,0815664291813839
-0,079314060152498
-0,0770601854254011
-0,0748267959951221
-0,0726402881881893
-0,070531050581901
-0,0685325883000802
-0,0666801869843626
-0,0650091633061664
-0,0635527924625686
-0,062340041508899
-0,0613932667896833
-0,060726051000368
-0,0603413583978672
-0,0602301745046055
-0,0603707697343999
-0,0607286865363188
-0,0612574998552724
-0,0619003449063206
-0,062592148984233
-0,0632624500529411
-0,0638386386977802
-0,0642494256079536
-0,0644283170363278
-0,0643168773355227
-0,0638675710424434
-0,0630460059488076
-0,0618324407697741
-0,0602224728749072
-0,0582268788510995
-0,0558706387205225
-0,0531912288653336
-0,0502363148796705
-0,0470610103193747
-0,043724888296051
-0,0402889390058512
-0,0368126578018606
-0,0333514267762032
-0,029954320530875
-0,0266624271725801
-0,0235077323531412
-0,0205125712033882
-0,0176896138945171
-0,0150423182681766
-0,0125657596880247
-0,0102477351432285
-0,00807003579011873
-0,00600978871473547
-0,00404078297970191
-0,00213471469487398
-0,000262308195097933
0,00160570724934208
0,00349776596038611
0,00544076506071521
0,00745947028933386
0,00957600116036552
0,0118093710383788
0,0141750655862486
0,016684654333169
0,0193454428772061
0,0221601853426448
0,0251268862107286
0,0282387258684538
0,0314841441347803
0,034847110197567
0,0383075961470384
0,0418422556504685
0,0454252908652037
0,0490294714536196
0,0526272517433163
0,0561919178522626
0,0596986878089
0,0631256857348636
0,0664547167033218
0,0696717818766658
0,0727672930984582
0,0757359706973243
0,0785764356802966
0,0812905351868985
0,0838824653734648
0,0863577761785844
0,0887223555436294
0,0909814949926202
0,0931391332502311
0,0951973598567992
0,0971562375538359
0,0990139723669198
0,100767426388809
0,102412933270629
0,103947343582432
0,105369199722414
0,106679920664809
0,107884867729184
0,108994165008239
0,110023162394292
0,110992454536208
0,111927403757754
0,112857156289971
0,113813185750779
0,114827441912385
0,115930222532135
0,117147917825654
0,11850079798923
0,120001021799214
0,121651037651096
0,123442527421509
0,125356009516974
0,127361172739447
0,129417960477167
0,131478369178287
0,133488870466681
0,135393316973634
0,137136151977328
0,138665715642637
0,139937428326404
0,140916635288277
0,141580917088113
0,141921704579583
0,141945084147691
0,141671734157569
0,141135993250208
0,140384120564202
0,139471862682779
0,138461487934467
0,137418482259628
0,136408119801401
0,135492124502903
0,134725626383542
0,134154589183208
0,133813847133659
0,133725841129183
0,13390009247047
0,13433339984167
0,135010696404259
0,135906462495877
0,13698655835071
0,138210322503517
0,139532775953525
0,140906779479019
0,142285010395639
0,143621653228671
0,144873733288825
0,146002059631076
0,146971780842147
0,14775259032173
0,148318644420065
0,148648274927744
0,148723585857289
0,148530022994091
0,148055994060345
0,147292599142989
0,14623350748848
0,144874990555331
0,143216095196122
0,141258917731568
0,13900892188088
0,136475232835504
0,133670837253078
0,130612624882222
0,127321221280467
0,12382058129889
0,120137337665204
0,116299925635585
0,112337530622537
0,108278928300891
0,104151303566225
0,0999791440013474
0,0957833040060214
0,0915803270521333
0,0873820960946771
0,0831958572477453
0,0790246314119019
0,074867995145118
0,0707231786042816
0,0665863978135995
0,0624543136955018
0,0583254936391163
0,0542017446803654
0,0500891916385887
0,0459989888806426
0,0419475799289973
0,0379564531541389
0,0340513817714841
0,0302611792097173
0,0266160431540634
0,0231455997067053
0,0198767898069121
0,0168317605442994
0,0140259321942809
0,0114664065871075
0,00915086373099679
0,00706706241869105
0,00519301897192187
0,00349788919374808
0,00194352570410531
0,000486630120453773
-0,000918628830217901
-0,00231770032776312
-0,00375263725095943
-0,00525919488528145
-0,00686425365071602
-0,00858376008162503
-0,0104213485394724
-0,0123677616196777
-0,0144011330479331
-0,0164881369651748
-0,0185859462835468
-0,0206448847834482
-0,0226116071716389
-0,0244326021994963
-0,0260577891182869
-0,0274439690754998
-0,0285579012014834
-0,0293787974832632
-0,029900069258578
-0,0301302084020941
-0,0300927443002968
-0,0298252792954572
-0,029377665941421
-0,0288094448850961
-0,0281867085899006
-0,0275785904005648
-0,0270535984749934
-0,0266760188709349
-0,0265026017160747
-0,0265797201436639
-0,0269411557686615
-0,0276066198476953
-0,0285810694382008
-0,0298548264943225
-0,0314044585648436
-0,0331943358509999
-0,0351787435150223
-0,0373044022896922
-0,0395132356476936
-0,0417452183105121
-0,0439411480408965
-0,0460451991186157
-0,048007139756742
-0,0497841246460497
-0,0513420054319684
-0,0526561338252447
-0,0537116620821497
-0,0545033720210998
-0,055035085276923
-0,0553187234012246
-0,0553730964511652
-0,0552225031287607
-0,0548952249435392
-0,0544219921668485
-0,0538344915333043
-0,0531639757730005
-0,0524400240861637
-0,0516894913769678
-0,0509356730579728
-0,0501977018571798
-0,049490183510751
-0,0488230694811318
-0,0482017568541897
-0,0476273982033879
-0,0470973974019352
-0,0466060611210767
-0,0461453701714299
-0,0457058301920157
-0,0452773577544449
-0,0448501561341293
-0,0444155351653226
-0,0439666320353435
-0,0434989947654511
-0,0430109974286345
-0,0425040656287179
-0,0419827019435683
-0,0414543132219442
-0,0409288539980089
-0,0404183119041126
-0,0399360709032396
-0,0394961956008483
-0,0391126841553863
-0,0387987380320467
-0,0385660939127577
-0,0384244567575707
-0,0383810638622265
-0,0384403985894653
-0,038604060307412
-0,0388707850258201
-0,0392366003978573
-0,0396950900799471
-0,0402377366621384
-0,0408543099008431
-0,0415332678812033
-0,0422621427282858
-0,0430278889562964
-0,0438171806447264
-0,0446166523248702
-0,0454130867002781
-0,0461935591169087
-0,0469455532492913
-0,0476570642664098
-0,0483167046214959
-0,0489138237680035
-0,049438647103509
-0,0498824321112566
-0,0502376320487559
-0,0504980507438658
-0,0506589671406419
-0,0507172060768657
-0,0506711329330204
-0,0505205544599739
-0,0502665160351789
-0,0499109961579839
-0,0494565111363149
-0,0489056553616487
-0,0482606138435051
-0,0475226923790003
-0,0466919155869014
-0,0457667431077797
-0,0447439490863696
-0,0436186996204451
-0,0423848478057058
-0,0410354474437247
-0,0395634659701417
-0,0379626566153691
-0,0362285312143935
-0,0343593604090122
-0,0323571189177635
-0,0302282913143377
-0,0279844590045427
-0,0256426017701166
-0,0232250665764045
-0,0207591808838937
-0,0182765154377753
-0,0158118300358233
-0,0134017625219123
-0,0110833437061999
-0,00889243690219304
-0,00686220864592424
-0,00502173600025288
-0,00339484555666483
-0,00199926059184682
-0,000846107394489914
6,01981870889178E-05
0,000721694702918118
0,00114629091550791
0,00134692141105242
0,00134052998077882
0,00114698024635598
0,000787994866363235
0,00028621663798624
-0,000335532366329745
-0,00105474214412724
-0,00184943491376757
-0,00269812437283389
-0,00357955538689762
-0,00447229236756116
-0,00535424465252835
-0,00620222829071755
-0,00699166440509138
-0,00769650446198211
-0,00828945300471313
-0,0087425303249962
-0,00902798365625313
-0,00911951878023805
-0,00899378782464293
-0,0086320368598916
-0,00802179171624525
-0,00715844474778228
-0,00604660072206712
-0,00470104734601467
-0,00314723487413773
-0,00142117849259559
0,000431265395417149
0,00235575508042087
0,00429141289276204
0,00617328572813981
0,00793519568433865
0,00951282856085407
0,0108468867753756
0,011886123591277
0,0125900781574303
0,0129313454880144
0,0128972411301619
0,0124907550329455
0,0117307306197892
0,0106512504702755
0,00930025627696265
0,00773747490160853
0,00603176160945802
0,00425800354511609
0,00249374940998371
0,000815743891901905
-0,000703452796369072
-0,00199858873254961
-0,00301443450847096
-0,00370796186638723
-0,0040498941832759
-0,00402557390150489
-0,00363513151004034
-0,00289297951553954
-0,00182669068196131
-0,000475350527435931
0,00111250210035102
0,00288121681947242
0,00477051945695685
0,00671801135672144
0,00866155634344393
0,0105414492740386
0,012302283700488
0,0138944635850287
0,0152753329918045
0,016409925933345
0,017271363862348
0,0178409486889845
0,0181080131910244
0,0180695972870516
0,017730017594255
0,0171003894073117
0,0161981458168059
0,0150465798610757
0,0136744145341293
0,0121153846208073
0,0104077961881836
0,00859401643246142
0,00671984032462569
0,00483368232269927
0,00298555174587468
0,00122578873846815
-0,000396437290113371
-0,00183483547467695
-0,00304784530886869
-0,00400054089455386
-0,00466647170981623
-0,00502930770728475
-0,00508415086994702
-0,0048383819385773
-0,00431193045775295
-0,00353688793390844
-0,0025564259096739
-0,00142303011645772
-0,000196114674341067
0,00106086793708642
0,00228365943192094
0,00341057331091899
0,00438579823310226
0,00516240283619443
0,0057048306107669
0,0059907041554428
0,00601180473822965
0,00577415217660415
0,0052971769826587
0,0046120459200757
0,00375926769847788
0,00278576167965748
0,00174161409775719
0,000676769519378529
-0,000362092249684771
-0,00133426232381878
-0,00220709892972993
-0,00295737550932731
-0,00357180909173398
-0,00404676937251078
-0,00438724002776021
-0,0046051673528141
-0,004717381472185
-0,00474330745811475
-0,00470269478800461
-0,00461358268681624
-0,00449068723084867
-0,00434434680759961
-0,00418010055016288
-0,00399890591594936
-0,00379793347244578
-0,0035718160929806
-0,00331418230645383
-0,00301927435636372
-0,00268344370961132
-0,00230633120466802
-0,00189157447222561
-0,00144693821568906
-0,000983828110105514
-0,00051621987386898
-5,91041660370735E-05
0,000373391855846639
0,000770000718286699
0,00112419863794685
0,00143574664927266
0,00171168167894987
0,00196659656874976
0,00222211294574171
0,00250552850547771
0,00284770341831646
0,00328033112310661
0,00383280873112225
0,00452897449094317
0,00538400858754107
0,00640179549763159
0,00757302013655425
0,00887421771147714
0,0102679226788518
0,0117039717426999
0,0131219173556808
0,0144544104619656
0,0156313231331803
0,0165843114365043
0,0172514729551563
0,0175817363792247
0,0175386344301018
0,0171031552694574
0,0162754379506499
0,015075168485143
0,0135406369234107
0,011726523536516
0,00970058438770315
0,00753949445744643
0,00532417242755101
0,00313494960229757
0,00104695304642333
-0,000873950619041425
-0,00257435692795742
-0,00401545369870162
-0,00517395648012615
-0,00604182907367804
-0,00662487154725042
-0,00694035166735828
-0,00701393196429243
-0,00687619729320764
-0,00655911248008301
-0,00609273469712739
-0,00550247151702047
-0,00480711657657926
-0,00401781610237134
-0,00313802852402713
-0,00216444436113286
-0,00108874309790159
0,000100014083315728
0,00141261518504454
0,00285684519625357
0,00443485059983586
0,00614099918346822
0,00796046698566125
0,00986871623690343
0,0118319451734876
0,0138085000966975
0,015751150113185
0,017610043620031
0,0193361000041905
0,0208845459841303
0,0222182874353859
0,02331081606513
0,0241483852403015
0,0247312476664731
0,0250738244657723
0,0252037639586866
0,025159941545889
0,024989541587319
0,0247444404567749
0,0244771703849055
0,0242367811121383
0,0240649275999217
0,0239924960931357
0,0240370389910114
0,0242012247730949
0,0244724279529849
0,0248234925215486
0,0252146081651063
0,0255961495873692
0,0259122528612103
0,0261048452202273
0,0261178107822453
0,0259009670552562
0,025413546253983
0,0246269196334811
0,0235263683996084
0,0221117856254239
0,0203972830668808
0,01840976722067
0,016186632728779
0,0137727912715285
0,0112173045525139
0,00856991675392477
0,00587778284719021
0,00318266454705327
0,000518817872427131
-0,00208827043052957
-0,00462221994778682
-0,00707517493031044
-0,00944639544980323
-0,0117401876614686
-0,0139633986338127
-0,0161227397064063
-0,018222216841072
-0,0202609357344275
-0,0222315145784137
-0,0241192813712218
-0,0259023605513208
-0,0275526717706148
-0,0290377790017926
-0,0303234482970297
-0,031376704327724
-0,0321691253080816
-0,0326800874560993
-0,0328996663374346
-0,0328309236782458
-0,0324913528665442
-0,0319133207206394
-0,0311434218673516
-0,0302407487577374
-0,0292741677821326
-0,0283187729544124
-0,0274517565575314
-0,0267479854540488
-0,0262755984547286
-0,0260919420844972
-0,0262401391646072
-0,0267465387381105
-0,027619230760336
-0,0288477298667192
-0,0304038457899906
-0,0322436704794161
-0,0343105305656231
-0,0365386848335029
-0,0388574950678459
-0,0411957688193554
-0,0434859663287438
-0,0456679811991346
-0,0476922436566909
-0,0495219529499988
-0,0511343166973173
-0,052520753927742
-0,0536860987574937
-0,0546469166745226
-0,0554291094086219
-0,0560650324312502
-0,0565903777558312
-0,0570410820292247
-0,0574505058564646
-0,0578470965401291
-0,0582526962734684
-0,0586815958760018
-0,0591403659282677
-0,0596284285941695
-0,0601392703884082
-0,060662143945072
-0,0611840697527854
-0,0616919297501887
-0,0621744448692589
-0,0626238476720704
-0,063037097015807
-0,0634165306499495
-0,0637699090770428
-0,0641098644871733
-0,0644528264431871
-0,0648175459078171
-0,0652233765688421
-0,0656884938459368
-0,0662282355586177
-0,0668537337677091
-0,0675709762598913
-0,0683803915621451
-0,0692769975733256
-0,0702510960972596
-0,0712894393893122
-0,0723767457615867
-0,0734974042073225
-0,0746371866450004
-0,0757847830398251
-0,076932989888935
-0,0780794151732728
-0,0792266099778976
-0,080381594207967
-0,0815548058000267
-0,082758563604012
-0,0840051876907939
-0,0853049618685968
-0,086664147315534
-0,0880832606584616
-0,0895558135259188
-0,0910676745234121
-0,0925971615187274
-0,094115906572268
-0,0955904635938312
-0,0969845563605407
-0,09826179868324
-0,0993886655190178
-0,100337459048526
-0,101089000895533
-0,10163479268809
-0,101978421776147
-0,102136044810511
-0,102135854708343
-0,102016520354799
-0,101824676192038
-0,101611623050222
-0,101429474798057
-0,101327041031578
-0,101345768888345
-0,101516073829313
-0,101854368767628
-0,102361054385715
-0,10301966430168
-0,103797272311695
-0,104646172135191
-0,105506740777736
-0,106311302910177
-0,106988733261242
-0,107469473518564
-0,107690604642956
-0,107600607706273
-0,107163466952763
-0,10636181600928
-0,105198898043584
-0,103699197408306
-0,10190769675267
-0,0998878119189262
-0,0977181492864612
-0,095488309399605
-0,0932940207929271
-0,0912319247552374
-0,0893943433076096
-0,0878643490824935
-0,0867114194332725
-0,0859879021879155
-0,0857264526707407
-0,0859385274687398
-0,0866139466911414
-0,0877214694482776
-0,0892102722365203
-0,0910121805863516
-0,0930444825442428
-0,0952131481926029
-0,0974162903746672
-0,0995477244078034
-0,101500513944842
-0,103170420875906
-0,10445920389325
-0,105277728515907
-0,105548857794795
-0,105210086190445
-0,104215859969335
-0,102539498651954
-0,10017459831599
-0,0971357649427466
-0,0934585014488779
-0,0891980623442153
-0,08442710112114
-0,0792319717320216
-0,0737076087154791
-0,0679509996082249
-0,0620533740226821
-0,0560913589345342
-0,0501174793928147
-0,044150506305885
-0,0381662554392961
-0,0320895119310905
-0,025787781553387
-0,0190675455339784
-0,0116736155243259
-0,00329204946432977
0,00644309738015899
0,017939139106201
0,0316304501388462
0,0479609494280379
0,0673640982230409
0,0902413517863752
0,116940174889421
0,147732833656031
0,182797200469219
0,222200748125519
0,265888764601859
0,313677597803211
0,365253454058597
0,42017694404043
0,477893218513453
0,537747189505726
0,599003016136368
0,660866772577054
0,722511028740686
0,78309997695135
0,841813737749055
0,897870575166226
0,950545938484367
0,999187508673583
1,04322574236446
1,08217974896659
1,11565867984484
1,14335912482386
1,16505927564739
1,18061080785711
1,18992953759974
1,19298592134159
1,18979638553724
1,18041630905122
1,16493524958091
1,14347472815464
1,1161885881929
1,08326565434237
1,04493415702715
1,0014671840007
0,953188287587808
0,900476326673971
0,843768659315416
0,783561920934557
0,720409813159116
0,654917572113452
0,587733060665891
0,519534712620422
0,451016823718043
0,382872912078592
0,315778040660247
0,250371093105457
0,187238014999439
0,126896974936996
0,0697862703243069
0,0162556138367613
-0,0334387951864846
-0,0791352645772186
-0,120763774833982
-0,158339660562635
-0,191954353784416
-0,221763886568343
-0,247975942809252
-0,270836278603316
-0,290615299367298
-0,307595496414596
-0,322060316989325
-0,33428488352782
-0,344528805310751
-0,353031153949333
-0,360007517169195
-0,365648914525823
-0,370122262092413
-0,373572015116061
-0,376122598551423
-0,377881252104507
-0,378940962821154
-0,379383226036174
-0,3792804552438
-0,378697943591975
-0,377695355497484
-0,376327789212768
-0,374646495134336
-0,372699357829566
-0,370531252301042
-0,368184369383273
-0,365698575688755
-0,363111835762437
-0,360460684198099
-0,35778069937016
-0,355106903275937
-0,35247399756407
-0,349916346216253
-0,347467630771359
-0,345160132814719
-0,343023637504671
-0,341083996749221
-0,339361436196017
-0,337868731176899
-0,336609408339147
-0,33557614795726
-0,33474956424066
-0,334097526276107
-0,333575151212846
-0,33312555610876
-0,332681399173435
-0,332167179617761
-0,331502203261502
-0,330604063878597
-0,32939244305206
-0,327792998287951
-0,325741093387537
-0,323185128170482
-0,320089246592556
-0,316435241530627
-0,312223527982346
-0,307473119938205
-0,30222061472258
-0,296518256746051
-0,290431215019241
-0,284034260645966
-0,277408067876243
-0,270635382494069
-0,263797303036888
-0,256969903842031
-0,250221395865956
-0,243609974654654
-0,237182448738867
-0,230973680810102
-0,22500681325845
-0,219294193823167
-0,213838870502623
-0,208636490858865
-0,203677421667972
-0,1989489014226
-0,194437050087751
-0,190128586034791
-0,186012136482024
-0,182079071454849
-0,178323838201057
-0,174743818985318
-0,171338776337273
-0,168109982817153
-0,165059154745149
-0,162187319673089
-0,159493745389339
-0,156975044737091
-0,154624547306096
-0,152431998690333
-0,150383613631668
-0,148462474270111
-0,14664923214845
-0,144923045399805
-0,143262662905016
-0,141647556539765
-0,140059001490192
-0,138481012610225
-0,136901060739398
-0,135310514956787
-0,133704782586094
-0,132083145864663
-0,13044832003438
-0,128805779959818
-0,127162919414796
-0,125528117721853
-0,123909791914583
-0,122315509185763
-0,120751224834671
-0,119220696512496
-0,117725107907357
-0,116262915930952
-0,114829916741727
-0,113419509213989
-0,112023121028559
-0,110630753317471
-0,109231595147728
-0,107814659055109
-0,106369392816834
-0,10488622990151
-0,103357050471097
-0,1017755352898
-0,100137405270096
-0,0984405486663444
-0,0966850453284892
-0,0948731024751518
-0,0930089189803512
-0,0910984953136237
-0,0891494044597454
-0,0871705359558378
-0,0851718213581392
-0,0831639456986546
-0,0811580465047496
-0,0791654002255462
-0,0771970957581192
-0,0752636962465294
-0,0733748932695136
-0,0715391615210175
-0,0697634265384049
-0,0680527622670902
-0,0664101385410503
-0,0648362402428461
-0,0633293794694491
-0,0618855191512218
-0,0604984211841468
-0,0591599244541329
-0,0578603486524674
-0,056589009219043
-0,0553348180219032
-0,0540869345006049
-0,0528354239928197
-0,0515718747621142
-0,0502899236054766
-0,0489856423313316
-0,0476577440168247
-0,046307578580292
-0,0449389012616222
-0,0435574141880508
-0,0421700991223381
-0,0407843773735409
-0,0394071492268402
-0,0380437787145712
-0,0366970988212745
-0,0353665163168599
-0,0340472937033336
-0,0327300780552506
-0,0314007330846269
-0,030040512305566
-0,0286265888372094
-0,0271329326623892
-0,0255315007545521
-0,0237936812378871
-0,0218919114419212
-0,01980137301554
-0,017501656501997
-0,0149782839516026
-0,012223981734187
-0,00923960673514427
-0,0060346470368991
-0,00262724204861761
0,000956304604633933
0,00468251497834667
0,00851219307350177
0,0124022802879945
0,0163080153135211
0,0201852811934579
0,023993006285024
0,0276954776266939
0,0312644254114602
0,0346807461290374
0,0379357491444653
0,041031836226592
0,0439825545288
0,0468119990640669
0,0495535787827207
0,0522481987374644
0,0549419471704806
0,0576834084194506
0,0605207482104151
0,0634987354213372
0,0666558724037255
0,0700218036627487
0,0736151599304025
0,0774419719103971
0,0814947563633216
0,0857523385141868
0,0901804312735853
0,0947329461868912
0,0993539662716598
0,103980269942285
0,108544260862202
0,112977133212214
0,117212087381559
0,121187408612939
0,124849230957081
0,128153830435153
0,131069323149265
0,133576683983895
0,135670046706274
0,137356293435567
0,138653987231138
0,139591742623225
0,140206162370925
0,14053949221326
0,140637157381582
0,140545344496282
0,140308780560594
0,139968838320653
0,139562066391981
0,13911920593951
0,138664716461885
0,138216794547455
0,137787834415845
0,137385250226925
0,137012559534473
0,136670616056272
0,136358878457162
0,136076609541949
0,135823915828259
0,135602558953671
0,135416495448063
0,13527212754645
0,135178272518142
0,13514587933544
0,135187537806694
0,13531683558944
0,135547622499454
0,135893239650221
0,136365764166112
0,13697530993655
0,137729412762634
0,138632516013192
0,139685562065214
0,140885686567395
0,142226007656184
0,143695500880694
0,145278952428445
0,146956987492957
0,148706176166826
0,150499224772456
0,152305264760616
0,154090253096034
0,155817496664617
0,15744830834096
0,158942794182013
0,160260760436297
0,161362716843718
0,162210940447179
0,162770553434272
0,163010560830614
0,162904790454702
0,162432679190763
0,161579856647055
0,1603384892911
0,158707364282852
0,156691711023002
0,154302778083791
0,15155720172236
0,148476217620346
0,145084778183301
0,141410642400024
0,137483503318533
0,133334209681734
0,128994124024672
0,124494640967054
0,119866868551925
0,115141454541576
0,110348520947676
0,105517655932367
0,100677904301808
0,0958576972721855
0,0910846693293071
0,0863853243697625
0,0817845335478869
0,0773048714016475
0,0729658222870608
0,0687829132095343
0,0647668489479853
0,0609227385488522
0,0572495068866956
0,0537395800308165
0,0503789184504019
0,0471474485293092
0,0440199121910862
0,0409671192774709
0,037957550784672
0,0349592265437072
0,0319417218013649
0,0288781963420256
0,0257472896140761
0,0225347371246221
0,0192345774985702
0,0158498452303898
0,0123926794788006
0,00888382146843038
0,00535151879780004
0,00182990038065243
-0,00164307289420991
-0,00502794293179788
-0,00828621245481807
-0,0113827532199029
-0,0142879938673413
-0,0169797325400211
-0,019444447030523
-0,0216780124942745
-0,0236857806909185
-0,0254820217227832
-0,0270887756429045
-0,028534203451393
-0,0298505617454067
-0,0310719500814876
-0,0322319933060233
-0,0333616220149642
-0,0344871031984705
-0,0356284512312251
-0,0367983186938286
-0,0380014296409912
-0,0392345778487131
-0,0404871723254648
-0,0417422749229473
-0,042978042800464
-0,0441694638479595
-0,0452902573504729
-0,0463148058824658
-0,0472199875844406
-0,0479867899313471
-0,0486016055208991
-0,049057135617837
-0,049352856141294
-0,0494950313665473
-0,0494962907191095
-0,0493748117263221
-0,0491531758243124
-0,0488569819897592
-0,0485133152272298
-0,0481491723582128
-0,047789946341728
-0,047458062902122
-0,0471718503229498
-0,0469447058870286
-0,0467846018697246
-0,0466939515592196
-0,046669832882151
-0,0467045452425157
-0,0467864553317312
-0,0469010710904561
-0,0470322704844512
-0,0471636039525184
-0,047279586568344
-0,0473668981868689
-0,047415416818961
-0,0474190217251062
-0,0473761174306513
-0,047289847183861
-0,0471679832066839
-0,0470225003676141
-0,0468688585359114
-0,0467250358259519
-0,046610369339342
-0,0465442711097901
-0,0465448942221151
-0,0466278272191658
-0,0468048938024836
-0,0470831296180788
-0,0474639989040691
-0,0479429014385137
-0,0485090052039259
-0,0491454231997537
-0,0498297346990818
-0,0505348328256028
-0,0512300624820896
-0,0518825962603599
-0,0524589818394088
-0,0529267832568254
-0,0532562310216243
-0,0534217927970296
-0,0534035777263498
-0,0531884935212674
-0,052771086139374
-0,0521540068996619
-0,0513480706388544
-0,0503718901443012
-0,0492510955076774
-0,0480171709589853
-0,0467059647097057
-0,0453559479298635
-0,0440063157490051
-0,0426950348798287
-0,0414569480869088
-0,0403220446507946
-0,03931399795974
-0,0384490567004218
-0,0377353555387331
-0,037172685900748
-0,036752739093077
-0,0364598043975104
-0,0362718760130845
-0,0361620967916341
-0,0361004455243333
-0,0360555596280482
-0,0359965775677403
-0,0358948857969235
-0,0357256633799349
-0,0354691331175015
-0,0351114497591628
-0,0346451820499996
-0,0340693739510041
-0,0333891992032347
-0,032615250299624
-0,0317625259367389
-0,0308491984682727
-0,0298952536618092
-0,0289210985691378
-0,027946229601059
-0,0269880425816106
-0,0260608507997275
-0,0251751574497402
-0,0243372072117785
-0,0235488199770683
-0,0228074897488935
-0,0221067151217218
-0,0214365156790065
-0,0207840818575756
-0,020134504462441
-0,0194715337050773
-0,0187783254869934
-0,0180381434122251
-0,0172349971551372
-0,0163542097544239
-0,0153829166389252
-0,0143105064778676
-0,0131290174342718
-0,0118335017332304
-0,0104223667929386
-0,00889769324385652
-0,00726552008062196
-0,00553607648246931
-0,00372393012070804
-0,00184801469695012
6,85035426464354E-05
0,00199855846306477
0,00391174624991761
0,0057751342574286
0,00755431547434431
0,00921468604330644
0,0107229001457992
0,0120484340880153
0,0131651719515461
0,0140529109671629
0,0146986777868195
0,015097748454064
0,015254275793121
0,0151814480010232
0,0149011304180215
0,0144429769195449
0,0138430356056954
0,0131419123899147
0,0123825924844297
0,011608050370809
0,010858800796203
0,0101705543652304
0,00957214001885413
0,0090838427095001
0,00871627858185433
0,00846989370831964
0,00833512856919904
0,00829324241649922
0,00831774323900696
0,00837632419135015
0,00843316976595263
0,00845146778488205
0,00839594876912197
0,00823527360768937
0,00794410374825047
0,00750471423337203
0,00690804658696666
0,00615414269951574
0,00525194877894202
0,00421852609783284
0,00307774880958293
0,00185860500842374
0,000593242726207438
-0,000685084093225881
-0,00194401415089391
-0,00315387837334942
-0,00428917996803825
-0,00532966591594332
-0,00626093793327643
-0,0070745901490092
-0,00776789872446742
-0,00834312225293021
-0,008806498452154
-0,00916704061741255
-0,00943524559590164
-0,00962182368933509
-0,00973655073815453
-0,00978732525268438
-0,00977949092099873
-0,00971545949370086
-0,00959464330229378
-0,0094136826913378
-0,00916693319905852
-0,00884716166269111
-0,00844639018165165
-0,00795682211914517
-0,00737178457630021
-0,00668662618648051
-0,00589951655682819
-0,00501210304398596
-0,00402999074187774
-0,00296302166804525
-0,0018253386352566
-0,000635227894913784
0,000585257593075151
0,00181088520837384
0,00301402396880788
0,00416559678106392
0,00523617268120189
0,006197159951404
0,00702205265972385
0,00768767522199059
0,00817536288198503
0,00847201161377192
0,00857092993528284
0,00847242849361992
0,00818409175201853
0,00772068995619983
0,00710370857719389
0,006360495735002
0,00552305434570371
0,00462653291264088
0,00370749476997816
0,00280206769503558
0,00194409179222168
0,00116339139050225
0,000484294908332082
-7,54854134555526E-05
-0,00050552414989649
-0,000802844935646018
-0,000971553331593512
-0,00102196101476732
-0,000969264138384763
-0,000831877653887596
-0,000629559490013298
-0,000381480568865808
-0,000104406249215101
0,000188849543752912
0,00049055474164821
0,000798663045480721
0,00111682288939327
0,00145377328106143
0,0018221621178143
0,00223687525373442
0,00271301153306283
0,00326367585707122
0,00389778558235231
0,00461809264503582
0,00541961363743022
0,00628863297550116
0,00720240207292858
0,00812960331041549
0,00903158579008105
0,0098643154903031
0,0105809208452418
0,0111346612193935
0,0114821049284315
0,0115862790091899
0,0114195472654999
0,0109659869799086
0,0102230672963616
0,00920248125282591
0,00793004498124367
0,00644464689694066
0,00479630119557455
0,00304342800005545
0,0012495415503654
-0,000520426805986874
-0,00220391598862308
-0,00374436954222935
-0,00509446514371162
-0,00621871809879502
-0,00709528489389494
-0,00771685280951214
-0,00809056942939333
-0,00823703619389162
-0,00818845744404452
-0,0079860955004384
-0,00767722879604272
-0,00731184059871701
-0,00693927843473962
-0,00660511844524434
-0,00634844553349026
-0,00619972162846057
-0,00617936416041605
-0,0062970992087146
-0,00655209347577798
-0,0069338110665594
-0,00742348945856127
-0,00799608783008042
-0,00862253286656493
-0,0092720739640037
-0,00991456181922872
-0,0105224809006134
-0,0110725953524627
-0,0115471066031614
-0,0119342658889782
-0,0122284321864112
-0,0124296118279443
-0,0125425567745525
-0,0125755310808941
-0,0125388772861557
-0,0124435248946618
-0,0122995814475183
-0,0121151334779114
-0,0118953613812078
-0,0116420411183093
-0,0113534694217842
-0,0110248108699308
-0,0106488279009907
-0,0102169215362697
-0,00972038380565313
-0,00915174461975646
-0,00850608743021896
-0,00778220997834721
-0,00698351851009543
-0,00611856499750895
-0,00520116546227229
-0,00425007119832274
-0,00328820090613559
-0,00234147766650891
-0,0014373474998224
-0,000603083379802059
0,000136002147348583
0,00075830276364101
0,00124749011884708
0,00159378994660125
0,00179486163105011
0,00185620913212401
0,00179108607440453
0,00161989602900445
0,00136912757359605
0,00106989946615413
0,000756221260946665
0,000463096396798132
0,000224606266575275
7,21139649488367E-05
3,27151488912074E-05
0,000128041566853601
0,000373492092432719
0,000777929116653533
0,00134383811674291
0,00206790864493421
0,00294195943492801
0,00395410206471581
0,00509001929668236
0,00633422761436079
0,00767119930455001
0,00908623725737999
0,0105660238698647
0,0120988014308677
0,0136741816938219
0,0152826231281923
0,0169146515036249
0,0185599292647103
0,020206298462245
0,0218389286616501
0,0234396943189363
0,0249868859506102
0,0264553277692354
0,0278169341779782
0,0290416924504324
0,0300990134626658
0,0309593510352823
0,0315959575316367
0,0319866223477192
0,0321152332645144
0,0319730093573644
0,0315592778662383
0,0308817042063119
0,0299559309398055
0,0288046337778085
0,0274560556680511
0,0259421287241794
0,0242963334443101
0,022551471462632
0,0207375391954311
0,0188798839566452
0,0169978016801133
0,0151036982197473
0,0132028875757659
0,011294044684147
0,00937027270957233
0,00742069029854216
0,0054323980219887
0,00339264939049074
0,00129103345515898
-0,000878525313869086
-0,00311612841766292
-0,00541477321669525
-0,0077598346220097
-0,0101292094029404
-0,0124941176213205
-0,0148205006060438
-0,0170709058190758
-0,0192067100536046
-0,0211905068536762
-0,0229884736433671
-0,0245725393278803
-0,0259221930683471
-0,0270258073262478
-0,0278813898877785
-0,0284967264339213
-0,0288889231352141
-0,0290834035490603
-0,0291124521780217
-0,0290134255105633
-0,0288267683968248
-0,0285939784695472
-0,0283556544227091
-0,0281497467233245
-0,028010104010973
-0,0279653778738964
-0,0280383159031702
-0,0282454410252642
-0,0285970867380651
-0,0290977352346767
-0,0297465898935403
-0,0305383058987627
-0,0314638026962832
-0,0325110886875721
-0,0336660406327985
-0,0349130958490616
-0,0362358324888175
-0,0376174300342117
-0,0390410169874827
-0,0404899242199058
-0,0419478697979421
-0,0433991039704269
-0,0448285416352059
-0,0462219046151603
-0,0475658884342938
-0,0488483592255602
-0,0500585770872546
-0,0511874338701975
-0,0522276869517682
-0,0531741667477012
-0,0540239348784382
-0,0547763720587141
-0,0554331795936695
-0,0559982852710194
-0,0564776526128106
-0,0568790010554593
-0,0572114527127645
-0,0574851281464146
-0,0577107183573441
-0,0578990625435657
-0,0580607608640235
-0,0582058485049691
-0,0583435520948137
-0,0584821423828625
-0,0586288887727497
-0,0587901124628558
-0,0589713263851677
-0,0591774425460363
-0,0594130213778298
-0,0596825338305953
-0,0599906054183405
-0,060342212479196
-0,0607428043848055
-0,0611983311061173
-0,0617151630169523
-0,0622998984974124
-0,0629590642165837
-0,0636987222197707
-0,0645240064469625
-0,065438618497704
-0,0664443177211809
-0,0675404437223526
-0,0687235098042791
-0,0699869036388563
-0,0713207266475719
-0,0727117963757955
-0,0741438269806887
-0,0755977923234818
-0,0770524646858801
-0,0784851105228625
-0,0798723136673006
-0,0811908867055637
-0,0824188235975644
-0,0835362415346464
-0,0845262580503631
-0,0853757507789501
-0,0860759520945268
-0,086622839088675
-0,087017290555721
-0,0872649963277153
-0,0873761196462416
-0,087364729313841
-0,0872480340722543
-0,0870454658595157
-0,0867776701748765
-0,0864654697232489
-0,0861288709540205
-0,0857861815217062
-0,0854532998485978
-0,0851432260289789
-0,0848658269317188
-0,0846278685231576
-0,0844333065535834
-0,0842838045536091
-0,0841794273867345
-0,08411944134154
-0,0841031396386343
-0,08413060672327
-0,084203336789878
-0,0843246319536056
-0,0844997230481671
-0,0847355800720452
-0,0850404080602681
-0,085422855251627
-0,0858909910769657
-0,0864511386793761
-0,0871066675829531
-0,0878568641558201
-0,0886959988596821
-0,0896126989929422
-0,090589713795927
-0,0916041267523651
-0,0926280300323363
-0,0936296317351736
-0,0945747220077973
-0,0954283837277432
-0,0961568016908816
-0,0967290050727248
-0,0971183742238965
-0,0973037563036997
-0,0972700647379763
-0,0970082832224876
-0,0965148524591733
-0,0957904818750395
-0,0948384930756753
-0,0936628599161939
-0,092266155082839
-0,0906476390480004
-0,0888017296387588
-0,086717066814089
-0,0843763376005939
-0,0817569532025222
-0,0788325795047024
-0,0755754212783159
-0,0719590588930301
-0,0679615447860484
-0,063568395828269
-0,0587750765216786
-0,0535885640767166
-0,0480276242035052
-0,0421215066410685
-0,0359068886644755
-0,0294230456391842
-0,0227053989521585
-0,0157777693385292
-0,00864383177262047
-0,00127841041683018
0,0063806467859208
0,0144392271647546
0,0230515751243116
0,032422088450951
0,042803748686057
0,0544928504669587
0,0678199445424034
0,0831371856066721
0,100802558012665
0,121161717029772
0,144528408024663
0,171164590500438
0,201261482159952
0,234922739655938
0,272150903794555
0,312838061561483
0,35676142645377
0,403584230028103
0,452861974159373
0,504053741662104
0,556537930118222
0,60963148647459
0,662611501103761
0,71473788718423
0,76527583483862
0,813516792014756
0,858796879714536
0,900511884226194
0,938128263093254
0,971189929387673
0,99932091238006
1,02222430365808
1,0396781600787
1,051529227126
1,0576854532255
1,05810827997291
1,05280561612514
1,04182624372989
1,02525617956487
1,00321724629381
0,975867821487212
0,943405456063799
0,906070812868717
0,864152193350533
0,817989812532314
0,767978959261634
0,714571241937094
0,658273263215205
0,599642277090108
0,539278638563221
0,477815136243789
0,415903575983807
0,35419923403084
0,29334399879222
0,233949153713101
0,176578808719652
0,12173496022174
0,0698450532774521
0,0212527446156718
-0,0237876619543717
-0,0651128951105456
-0,102648565897687
-0,136403497492628
-0,166461064128816
-0,192968236709454
-0,216123137769003
-0,236161944853771
-0,25334595000387
-0,267949490708744
-0,280249326468923
-0,290515860836265
-0,299006419302794
-0,305960606920974
-0,311597602736742
-0,316115114701974
-0,319689628199671
-0,322477538345343
-0,324616760305624
-0,326228457921332
-0,327418609740524
-0,328279231363844
-0,328889180417921
-0,329314572442558
-0,3296089206904
-0,329813171411259
-0,329955833006481
-0,330053391064456
-0,330111164065199
-0,33012469250184
-0,330081675963678
-0,329964388800214
-0,329752426139419
-0,329425568434322
-0,328966512488363
-0,328363205598595
-0,327610539091178
-0,326711206735158
-0,325675607515113
-0,324520763457781
-0,323268322104454
-0,321941809347846
-0,32056338140978
-0,319150385755514
-0,317712072924951
-0,316246800748729
-0,314740038670878
-0,313163415693832
-0,311474966669721
-0,309620626565562
-0,307536910822181
-0,305154612532296
-0,302403253916276
-0,299215959135387
-0,295534374288786
-0,291313252010748
-0,28652434294853
-0,281159291861434
-0,275231316725933
-0,268775547384969
-0,261848006933048
-0,254523324465514
-0,246891362963315
-0,239053022842159
-0,23111553412089
-0,223187574653331
-0,215374547548749
-0,207774319503564
-0,200473667505998
-0,193545610204284
-0,187047719456412
-0,181021424926184
-0,175492247526432
-0,170470832501178
-0,165954605007964
-0,161929843174109
-0,158373956755509
-0,155257772554759
-0,152547657715841
-0,150207354463671
-0,148199449549342
-0,146486452862408
-0,145031507069386
-0,14379878903694
-0,142753690844351
-0,141862881356715
-0,141094348323208
-0,140417506901804
-0,139803435906169
-0,139225271445369
-0,138658753061251
-0,138082884187063
-0,137480640738355
-0,136839642067382
-0,136152689647574
-0,135418081704384
-0,134639626328204
-0,133826299941191
-0,132991529873651
-0,132152115957973
-0,131326842826021
-0,130534868270573
-0,129794000154714
-0,129118992151012
-0,128519995149951
-0,128001295596133
-0,12756045458108
-0,127187933551875
-0,126867256261833
-0,126575715135533
-0,126285587026981
-0,125965782042751
-0,125583813226028
-0,125107947442675
-0,124509381149178
-0,123764280293969
-0,122855531839352
-0,121774074689146
-0,120519708597209
-0,119101318463996
-0,117536495227017
-0,115850579836746
-0,11407519998637
-0,112246406883519
-0,110402548463342
-0,10858203371031
-0,106821148774762
-0,105152078874987
-0,103601271166666
-0,10218824437296
-0,100924913464624
-0,0998154551302683
-0,0988566957333451
-0,0980389615786615
-0,0973472951188506
-0,096762913288391
-0,0962647677914459
-0,0958310633317592
-0,0954405987877446
-0,0950738174932271
-0,0947134842156972
-0,0943449454241303
-0,093955972490008
-0,0935362307143705
-0,0930764564786012
-0,092567456691714
-0,0919990658603041
-0,0913592043393917
-0,0906331754680575
-0,0898033195425603
-0,0888491102803659
-0,0877477372863497
-0,0864751695734366
-0,085007644804143
-0,0833234811690009
-0,081405068364186
-0,0792408648937504
-0,0768272142312388
-0,0741697940447369
-0,0712845314031471
-0,0681978515597345
-0,0649461762478927
-0,0615746455496794
-0,058135100765449
-0,0546834288360698
-0,0512764264372043
-0,0479683886578877
-0,0448076589608241
-0,0418333906991913
-0,0390727643163784
-0,0365388783899233
-0,0342294887269183
-0,0321267109645106
-0,0301977331587006
-0,0283965110928053
-0,0266663464429874
-0,0249431822730247
-0,0231593969410642
-0,0212478406396124
-0,0191458413507234
-0,016798910334669
-0,0141639009605979
-0,0112114167003256
-0,00792732091278755
-0,00431326803103232
-0,000386247422705765
0,00382279805573383
0,00827115258130998
0,0129071278175443
0,0176732664811219
0,0225097121680148
0,0273575073483553
0,0321615983298229
0,0368733591952328
0,0414524928738952
0,0458682225918174
0,0500997460793848
0,0541359833444387
0,0579747017322963
0,0616211454694928
0,0650863276839791
0,0683851591309085
0,0715345887024981
0,0745519169408217
0,0774534168587099
0,0802533592247561
0,0829634955694623
0,0855930054700958
0,0881488692007988
0,0906365864425221
0,0930611297187444
0,0954280000426062
0,0977442435924335
0,100019292476874
0,102265509370727
0,104498343390091
0,106736040697596
0,108998894882695
0,111308065814635
0,113684037715723
0,116144824357307
0,118704058394047
0,121369120583396
0,124139471306426
0,127005340721257
0,129946915218236
0,132934127813088
0,135927120645088
0,138877401600583
0,141729667463259
0,144424216417036
0,146899826821279
0,149096940301191
0,150960958342697
0,152445445093061
0,153515026466041
0,154147787536556
0,154336996207489
0,154092019825334
0,153438350532414
0,152416711549554
0,151081276571977
0,149497093981934
0,147736862434658
0,145877250605405
0,143994988001766
0,142162972991851
0,1404466468116
0,138900867664679
0,137567487682932
0,136473789320035
0,135631879642406
0,135039074881582
0,134679238167956
0,134524965561914
0,134540454396697
0,134684838200095
0,134915738033805
0,135192763832994
0,13548070286634
0,13575215579559
0,135989422618095
0,136185498069258
0,136344104709199
0,136478766722643
0,136611002711334
0,136767785515503
0,136978475822594
0,137271479192835
0,137670899555704
0,138193464115365
0,138845974548681
0,139623498797186
0,140508459702048
0,141470705791174
0,142468571335494
0,143450853708843
0,144359562541337
0,145133233254025
0,145710552414006
0,146034017771013
0,146053353882731
0,145728425123702
0,145031429835593
0,143948218888793
0,142478653949697
0,140635999135002
0,138445417828015
0,135941717545379
0,133166543849403
0,130165264450767
0,126983803544001
0,123665682580104
0,120249497684527
0,116767018310529
0,113242030779715
0,109689979735136
0,106118386755319
0,102527955244089
0,0989142105980505
0,0952694801068061
0,0915849920263038
0,0878528699865789
0,0840678174762403
0,0802283256633281
0,0763372923872957
0,0724020054476536
0,0684335128513456
0,0644454696021261
0,0604526082534209
0,0564690229732839
0,052506479914716
0,048572967658129
0,044671680025889
0,0408005814029672
0,0369526456575049
0,0331167893925616
0,0292794453465945
0,0254266495784009
0,0215464539133869
0,0176314293911416
0,0136810021231571
0,00970336314713648
0,00571671932830275
0,00174970154972977
-0,00215918451725197
-0,00596309665854581
-0,00960932509942847
-0,0130425453861525
-0,0162086292694644
-0,0190587256143006
-0,0215532844221163
-0,0236656854327254
-0,0253851502786393
-0,0267186630788571
-0,0276916954057196
-0,0283476221650085
-0,0287458177511986
-0,0289585283215064
-0,0290667171801462
-0,0291551673973098
-0,0293071913913267
-0,0295993354229856
-0,0300964742848271
-0,0308476669463105
-0,0318830892924222
-0,0332122795856919
-0,0348238323571799
-0,0366865651548326
-0,0387520689417541
-0,0409584461895559
-0,0432349494443974
-0,0455071647524436
-0,0477023441966478
-0,0497544831091165
-0,0516087607719287
-0,0532250165923281
-0,0545800123691322
-0,055668328905426
-0,0565018539303981
-0,0571079293039027
-0,0575263299874381
-0,0578053369988554
-0,0579972346122762
-0,0581536031997827
-0,0583207904424817
-0,0585359245230121
-0,0588237852352305
-0,0591947767666735
-0,0596441551364254
-0,0601525613010927
-0,0606878058180657
-0,0612077510534752
-0,0616640499219783
-0,0620064328263315
-0,0621871918751237
-0,0621654967638535
-0,0619111908242894
-0,0614077574429401
-0,0606542129016113
-0,0596657664765878
-0,0584731857575082
-0,0571209069961592
-0,0556640291001332
-0,0541644179641182
-0,0526862185141593
-0,0512911196603622
-0,0500337386880573
-0,0489574848031494
-0,0480912270534665
-0,0474470322748396
-0,0470191584612273
-0,0467843941368037
-0,0467037319724371
-0,0467252628315368
-0,0467880823211414
-0,0468269229991788
-0,0467771676471058
-0,0465798670068973
-0,0461863816943213
-0,0455622930951799
-0,0446902802924605
-0,0435717356589265
-0,0422269852100828
-0,0406940841504011
-0,0390262654775476
-0,0372882218849805
-0,0355514907073589
-0,0338892813521994
-0,0323711290959657
-0,0310577747014803
-0,0299966545977011
-0,0292183423002132
-0,0287342114739471
-0,0285354998384842
-0,0285938478355344
-0,0288632747310111
-0,0292834461742469
-0,0297839896050664
-0,0302895349586594
-0,030725104013509
-0,0310214467673541
-0,031119929318909
-0,0309766144160678
-0,0305652401238674
-0,0298788887994391
-0,0289302407670279
-0,0277504165365853
-0,0263865193408736
-0,0248980875133832
-0,0233527461026912
-0,0218214028193256
-0,0203733607908361
-0,0190717178025542
-0,0179693894480154
-0,0171060350435795
-0,0165060855665718
-0,0161779792741716
-0,0161146111066665
-0,0162949049087599
-0,0166863309887771
-0,0172481226002787
-0,0179348989124293
-0,0187003822012739
-0,0195009042341588
-0,0202984296687635
-0,0210628790250501
-0,0217736048647132
-0,0224199554239974
-0,0230009425133498
-0,0235241076237363
-0,0240037450561929
-0,0244586881238817
-0,0249098904258388
-0,0253780373113657
-0,025881403629903
-0,0264341353823588
-0,0270450795016222
-0,0277172234677342
-0,0284477413310413
-0,029228581559926
-0,0300474809303791
-0,0308892522925861
-0,0317371756997898
-0,0325743233696931
-0,0333846685981212
-0,0341538644095963
-0,0348696251948639
-0,0355216984294773
-0,0361014677254684
-0,0366012769524919
-0,037013602534044
-0,0373302230864131
-0,0375415397073549
-0,0376361857561351
-0,0376010331930601
-0,0374216565932032
-0,037083260594074
-0,0365720175660871
-0,0358767060939586
-0,0349904936456308
-0,0339126740483443
-0,0326501562729352
-0,0312185078482919
-0,0296423843445286
-0,0279552239050545
-0,0261981488945199
-0,0244180898373892
-0,0226652231642392
-0,0209898865819215
-0,0194391968908993
-0,0180536384784503
-0,0168639115643967
-0,0158883246314304
-0,0151309846719605
-0,0145809836954993
-0,0142127044322822
-0,0139872784336712
-0,0138551333156685
-0,0137594711620207
-0,0136404354945192
-0,0134396575379907
-0,0131048300827316
-0,012593943463489
-0,0118788349471911
-0,0109477494163574
-0,00980668233989041
-0,00847936992783811
-0,0070058984622983
-0,00544001626894403
-0,00384533826268826
-0,00229072549842313
-0,000845192713839958
0,000427260646363888
0,00147248978413615
0,00225033051284768
0,00273768180030544
0,00293029573845783
0,00284312724531882
0,00250920960642466
0,00197713883378215
0,00130736023952417
0,000567545638185352
-0,00017257845294493
-0,000846548065378655
-0,00139620990371735
-0,00177610755620593
-0,00195686568422898
-0,00192731123645185
-0,00169516982545047
-0,00128628646752354
-0,000742434031719178
-0,000117881039104286
0,000525015464275979
0,00112085346581213
0,00160648128083402
0,00192614340561713
0,00203608970842178
0,00190830357408912
0,00153307251660408
0,000920212189762561
9,88547720401313E-05
-0,000884182327430251
-0,00196732932605139
-0,00307828843968187
-0,00413886435594289
-0,00507026158918378
-0,00579848054862805
-0,00625944137794198
-0,00640348758094259
-0,00619896777541898
-0,00563465982898862
-0,0047208820592174
-0,00348922528163151
-0,00199093109261538
-0,000294029670571793
0,00152057102313593
0,00336378839707172
0,00514355806455139
0,00677018768389586
0,00816153867213769
0,00924771937792503
0,00997500964624314
0,0103087898141132
0,0102353133382816
0,0097622370149028
0,00891790119628916
0,00774942962755854
0,00631978966634454
0,00470401442006543
0,00298483512454702
0,00124800220929024
-0,000422414612322858
-0,00194846371263739
-0,00326222755444618
-0,00430899923939896
-0,00504955527675033
-0,00546142335062535
-0,00553911190123448
-0,0052933366582011
-0,00474934324517342
-0,00394448025810047
-0,0029252201634817
-0,00174385315763114
-0,000455090127659915
0,000887195353526359
0,00223287866389449
0,00353797890775935
0,00476641431317155
0,0058910508311777
0,00689403423680175
0,00776645172647461
0,0085074182107903
0,00912272142509477
0,00962318564420936
0,0100229244744643
0,0103376484351329
0,0105831737585594
0,0107742472221126
0,0109237611208458
0,0110423867580354
0,0111386085375499
0,0112190983201294
0,0112893352408175
0,0113543528880743
0,0114194858237289
0,0114909916599131
0,0115764427874871
0,0116848114561785
0,0118262101382581
0,0120112920409449
0,0122503597569066
0,0125522688771897
0,0129232437347621
0,0133657409775781
0,0138775011365443
0,0144509179178675
0,0150728302282776
0,0157248050168053
0,016383933207284
0,0170241106231351
0,017617725706944
0,0181376309962696
0,0185592403014089
0,0188625720854356
0,0190340542409024
0,0190679173187381
0,0189670317948877
0,0187430879735667
0,0184160711285055
0,0180130447730001
0,0175663161688493
0,0171111147943414
0,016682961178166
0,0163149358578627
0,0160350729347148
0,0158640980936248
0,0158137070489046
0,0158855388600135
0,0160709428656057
0,0163515726878769
0,0167007715327733
0,0170856458048741
0,0174696647805788
0,017815578023277
0,0180884134500978
0,0182583101932723
0,0183029524808527
0,0182094028074446
0,0179751819862714
0,0176085060467827
0,017127660069425
0,0165595608141789
0,0159376272858311
0,0152991353701037
0,0146822745002828
0,0141231474894014
0,0136529572380342
0,013295606051125
0,013065896430393
0,0129684698854724
0,0129975572527933
0,0131375457897098
0,0133643010019098
0,0136471204778894
0,0139511481868035
0,0142400447088778
0,014478694204531
0,0146357334571436
0,0146857110649859
0,0146107233234834
0,0144014235774931
0,0140573589655022
0,0135866471613857
0,0130050605628015
0,0123346315359266
0,0116019259342427
0,0108361505612634
0,0100672625095421
0,00932423490175738
0,00863360646395877
0,00801840489318412
0,00749749022438388
0,00708531905942111
0,00679208813785502
0,00662418046665975
0,00658481239695243
0,00667476765512155
0,00689310524021541
0,007237741525779
0,00770583098719505
0,00829390166634482
0,00899773704532772
0,00981203143174439
0,0107298772793631
0,0117421667431963
0,0128370036204729
0,0139992242933565
0,0152101172047955
0,0164474108715792
0,0176855726696686
0,0188964276972816
0,0200500725000255
0,0211160260762183
0,0220645338119518
0,0228679216519017
0,0235018898342759
0,0239466386682352
0,0241877327958578
0,0242166335886311
0,0240308593909998
0,0236337670751351
0,0230339823413078
0,0222445369665026
0,0212817956700687
0,0201642711370636
0,0189114315564748
0,0175426004772429
0,0160760345987045
0,0145282430130229
0,0129135839161118
0,0112441449134515
0,00952988391673306
0,00777898229743014
0,0059983429131487
0,00419415465526059
0,00237244315292842
0,00053953406302511
-0,00129763000062128
-0,00313135731412996
-0,00495327400563193
-0,00675457961231519
-0,00852645778209931
-0,0102605901033299
-0,0119497087407701
-0,0135881186664712
-0,0151721231371492
-0,0167002961866801
-0,0181735620103649
-0,0195950613666175
-0,0209698073168033
-0,0223041543755961
-0,0236051242909962
-0,0248796463208587
-0,0261337787183301
-0,0273719805143936
-0,0285964985742024
-0,0298069250077
-0,0309999654615696
-0,0321694412325001
-0,0333065292427355
-0,0344002254708572
-0,0354380009900513
-0,0364066065692282
-0,037292972639576
-0,0380851466481942
-0,03877320933015
-0,0393501147130721
-0,0398124050098855
-0,0401607600296198
-0,0404003504730471
-0,0405409746645614
-0,0405969682853784
-0,0405868861689124
-0,0405329640258223
-0,0404603761321397
-0,0403963127248464
-0,0403689082743806
-0,0404060590845161
-0,0405341757660033
-0,0407769227846794
-0,0411540030706735
-0,0416800498445589
-0,0423636896154527
-0,0432068388477471
-0,04420429131002
-0,0453436431279053
-0,0466055878296872
-0,0479645945344723
-0,0493899596434937
-0,0508471972604791
-0,0522997078540495
-0,0537106403996992
-0,0550448426584005
-0,0562707795080676
-0,0573622922135502
-0,0583000736084782
-0,0590727460489948
-0,0596774506208392
-0,0601198864374419
-0,0604137761531076
-0,0605797754636233
-0,0606438872230424
-0,0606354814247579
-0,0605850571607446
-0,0605219085892027
-0,0604718712217871
-0,0604553257231962
-0,0604856231187346
-0,0605680682135261
-0,0606995587525829
-0,0608689290281438
-0,0610579919193636
-0,0612432169054438
-0,0613979280443989
-0,0614948597123373
-0,0615088731135561
-0,0614196164771808
-0,0612139085768288
-0,0608876396307201
-0,0604470151224299
-0,0599090146963818
-0,0593009966444807
-0,05865944429736
-0,0580279187473827
-0,0574543473206269
-0,0569878337811521
-0,0566752195957632
-0,056557651924224
-0,0566674207734522
-0,0570253139947157
-0,0576387051547333
-0,0585005380569208
-0,0595893065482881
-0,0608700542250333
-0,0622963414089673
-0,0638130524738418
-0,065359851165444
-0,0668750402886375
-0,0682995492711767
-0,0695807614127928
-0,0706759031987355
-0,0715547501571868
-0,0722014549405634
-0,0726153695630027
-0,0728108097897984
-0,072815789436057
-0,0726698294973511
-0,0724210153626724
-0,0721225295108695
-0,0718289228093675
-0,0715924021389993
-0,0714594046383923
-0,0714677002957184
-0,0716442175717865
-0,072003725339219
-0,072548433990379
-0,0732685050535207
-0,0741433882115637
-0,0751438430008611
-0,0762344546251841
-0,0773764228695654
-0,0785303921448923
-0,0796590995833747
-0,0807296454517851
-0,0817152329739139
-0,0825962787001058
-0,083360854620662
-0,0840044837200652
-0,0845293660500427
-0,0849431577712408
-0,0852574570338361
-0,0854861655465897
-0,0856438922971431
-0,0857445468896395
-0,0858002367474231
-0,085820538697728
-0,0858121659934646
-0,0857790019193527
-0,0857224261683198
-0,0856418250170885
-0,0855351549376452
-0,0853994241796875
-0,0852309689928685
-0,0850254296129292
-0,0847773733117783
-0,0844795634679976
-0,0841219294054039
-0,0836903454961704
-0,0831653735103802
-0,0825211535886822
-0,0817246417931228
-0,0807353828289356
-0,0795059740896582
-0,0779833228135212
-0,0761107252500459
-0,0738307109310146
-0,0710885037096885
-0,0678358627506724
-0,0640349900831376
-0,059662135443839
-0,0547105014048964
-0,0491920579043983
-0,0431379182395177
-0,0365970083392386
-0,0296328743209473
-0,0223186133823741
-0,0147300704151508
-0,00693760555730934
0,00100310706594064
0,0090606555891989
0,0172371486036286
0,0255764084429285
0,0341703522860784
0,0431628710647249
0,0527506308551431
0,0631803887459623
0,0747426256768578
0,0877615390933768
0,10258169191307
0,119551862875249
0,139006867851428
0,161248304211047
0,186525295354909
0,21501636840644
0,246813577989966
0,281909891862191
0,320190684579174
0,361429953711441
0,405291594739875
0,451335764856571
0,499030054174997
0,547764887762046
0,596872324913313
0,64564722196476
0,693369596242923
0,739326980603269
0,782835593409757
0,823259264275265
0,860025241833069
0,892636251190515
0,920678446398713
0,943825195435123
0,961836919237024
0,974557460645527
0,981907664865015
0,983876995644927
0,980514081665431
0,971917082492941
0,958224686063709
0,939608409031058
0,9162666814391
0,888420975840236
0,856314008045258
0,8202098125474
0,780395299287663
0,737182746023954
0,69091258406067
0,641955801356492
0,590715317328999
0,537625773836414
0,483151327562088
0,427781207096112
0,372022997276686
0,316393816379214
0,26140974123398
0,207573995739152
0,155364536793389
0,105221739610117
0,0575368974289841
0,0126422091439961
-0,0291971628483198
-0,0677885145177543
-0,103014213415784
-0,134831392577758
-0,163268794098897
-0,188420999533459
-0,210440429126293
-0,22952760416521
-0,245920240327262
-0,259881772042089
-0,271689899287158
-0,281625702610861
-0,289963795813092
-0,29696388663209
-0,302864003030169
-0,307875525377754
-0,312180051516522
-0,315928019626557
-0,319238928523348
-0,32220293007411
-0,324883525380067
-0,32732107487051
-0,329536830638176
-0,331537214087947
-0,333318089487803
-0,334868820293598
-0,336175936237355
-0,337226281771395
-0,338009557881546
-0,338520207644023
-0,33875863016752
-0,338731737373802
-0,338452893559879
-0,337941299269587
-0,337220899243563
-0,336318909405896
-0,335264070185182
-0,334084742742355
-0,332806970360217
-0,331452628682031
-0,330037784852355
-0,328571376190083
-0,327054303453576
-0,325479012005215
-0,323829606822088
-0,322082515507121
-0,320207678953008
-0,318170214260719
-0,315932461471777
-0,313456297168019
-0,31070557641658
-0,30764855194273
-0,304260117087187
-0,300523727650122
-0,296432876819461
-0,29199202579662
-0,287216928426401
-0,282134328496525
-0,276781050216735
-0,271202542541285
-0,265450973339132
-0,259582997238102
-0,253657339268172
-0,247732343990307
-0,241863636313051
-0,236102026354271
-0,230491767953952
-0,225069250999628
-0,219862174224548
-0,214889210496654
-0,210160143593611
-0,205676426671822
-0,201432089989656
-0,197414910349288
-0,193607747681279
-0,189989955053278
-0,186538776193166
-0,183230657963649
-0,180042422199562
-0,176952259947561
-0,17394052943326
-0,170990355306635
-0,168088039555914
-0,165223303179922
-0,162389381991054
-0,159583000179433
-0,1568042422575
-0,154056338925689
-0,1513453765223
-0,148679934470954
-0,146070651573689
-0,143529721068218
-0,141070316402845
-0,138705954683681
-0,136449812113186
-0,134314014567524
-0,132308935409369
-0,130442540381946
-0,128719824506578
-0,127142387177918
-0,125708188269711
-0,124411519710388
-0,123243213845648
-0,122191092836743
-0,121240643594925
-0,12037588211979
-0,119580351539308
-0,118838181737473
-0,118135127043351
-0,117459493651985
-0,116802871197155
-0,116160593588545
-0,115531872408131
-0,11491957073161
-0,114329614336671
-0,113770068565151
-0,113249939903278
-0,112777788872329
-0,112360262443242
-0,112000667686065
-0,111697712155396
-0,111444529812382
-0,1112280941807
-0,111029093989417
-0,110822312630095
-0,11057751396604
-0,110260796463324
-0,109836338642407
-0,109268424728279
-0,108523613119071
-0,107572894214589
-0,10639367982569
-0,104971474397033
-0,103301098185149
-0,101387362911586
-0,0992451389491646
-0,0968987967826243
-0,0943810508787776
-0,0917312776242985
-0,0889934171620714
-0,0862135988356686
-0,0834376491614444
-0,0807086483967595
-0,0780646963843225
-0,0755370310001862
-0,0731486147204357
-0,0709132689007023
-0,0688353942498503
-0,0669102730003901
-0,0651249068003587
-0,0634593075646449
-0,0618881291726906
-0,0603825080435739
-0,0589119715351239
-0,0574462751498366
-0,0559570421759278
-0,0544191012559433
-0,0528114464325489
-0,0511177778693055
-0,0493266168712276
-0,0474310230922214
-0,0454279722639819
-0,0433174770431827
-0,0411015500016226
-0,0387831152695022
-0,036364973704205
-0,0338489160999055
-0,0312350611701823
-0,0285214714771686
-0,0257040734512543
-0,0227768794231349
-0,0197324827174688
-0,016562773449217
-0,0132598047024801
-0,00981672748885401
-0,00622870912494712
-0,0024937533939558
0,00138664842508938
0,00540709011931167
0,00955808055084176
0,0138261422209341
0,0181941666735515
0,0226419942031382
0,0271471682881088
0,031685803316559
0,0362334984103049
0,0407662307269059
0,0452611682412883
0,049697353752488
0,0540562273688808
0,0583219722482815
0,0624816860952282
0,0665253969173267
0,0704459542610997
0,0742388352702331
0,0779019077440487
0,0814351897285234
0,0848406375535355
0,0881219825986932
0,091284622986117
0,0943355615661594
0,0972833679704864
0,100138131900929
0,102911368775042
0,105615838354014
0,108265242540197
0,110873779814817
0,113455549957333
0,116023822108514
0,118590199928351
0,121163737219931
0,123750073568945
0,126350670101733
0,128962228684405
0,131576372664273
0,134179653333785
0,136753924303009
0,139277097340083
0,141724260331982
0,144069103613763
0,146285568324614
0,148349602889309
0,150240894254396
0,151944431522869
0,153451762799755
0,154761821838368
0,155881228972254
0,156824008988921
0,157610714293042
0,158266991244103
0,158821676759577
0,159304556745896
0,159743953503533
0,160164332368616
0,160584125869071
0,16101396518918
0,161455483730978
0,161900817498943
0,162332874683365
0,162726386230003
0,163049685151614
0,16326710021475
0,163341794728357
0,163238838383199
0,162928273389031
0,162387928329109
0,16160574536586
0,16058141827405
0,159327188111788
0,157867706536807
0,156238948946591
0,154486235007263
0,152661486622323
0,150819916953742
0,149016393355594
0,147301747722645
0,145719316987299
0,144301983165619
0,14306994726025
0,142029416953049
0,141172318551249
0,140477064501373
0,139910325258005
0,13942967498618
0,138986910936612
0,138531792009143
0,138015907534092
0,137396375512381
0,136639081565306
0,135721204808943
0,134632832054889
0,133377532829924
0,131971849052735
0,130443738313655
0,128830091803652
0,127173520504426
0,125518660470226
0,123908285445579
0,122379529705728
0,120960514841412
0,119667642057117
0,118503759134294
0,117457342793592
0,116502758358444
0,115601575694865
0,114704840010675
0,113756124541156
0,112695135011429
0,111461597314645
0,109999142841015
0,108258911306127
0,106202617859056
0,103804877171427
0,101054637999477
0,0979556522191404
0,0945259766901734
0,090796578502699
0,086809178469486
0,082613519322143
0,0782642801722943
0,0738178752134413
0,069329371704049
0,0648497409796461
0,0604236190402329
0,0560877038409681
0,0518698593631376
0,0477889368384711
0,0438552662261384
0,0400717207881044
0,0364352182186676
0,032938495965489
0,0295719876335942
0,0263256317206403
0,0231904622474239
0,0201598607245009
0,0172303871469459
0,0144021504987038
0,0116787226330287
0,00906663952802343
0,00657456748368489
0,00421223626672028
0,0019892549584863
-8,60712768060496E-05
-0,00200781353619391
-0,00377328823005795
-0,0053836550735079
-0,00684420523474515
-0,00816433124084806
-0,00935719910231619
-0,0104391678853014
-0,0114290205958825
-0,0123470814303549
-0,0132142976488461
-0,0140513598602803
-0,0148779233164531
-0,0157119765777392
-0,016569384554299
-0,0174636127138538
-0,0184056202483336
-0,0194038941694561
-0,0204645850554329
-0,0215916994579792
-0,0227873040425658
-0,0240517020612334
-0,0253835528399491
-0,0267799182419072
-0,0282362349323716
-0,0297462259145617
-0,0313017775960624
-0,0328928180653747
-0,03450723729988
-0,03613089001862
-0,0377477168548846
-0,0393400098324464
-0,0408888347960266
-0,0423746077509696
-0,0437778055683681
-0,0450797759114328
-0,0462635980693205
-0,0473149370829715
-0,0482228290945164
-0,0489803368722975
-0,0495850210104522
-0,050039183987546
-0,0503498601556275
-0,0505285435516058
-0,0505906655706408
-0,0505548542780916
-0,0504420247505986
-0,0502743636804351
-0,0500742803480644
-0,0498633989712567
-0,0496616640894785
-0,0494866210956384
-0,0493529190338011
-0,0492720634697992
-0,0492524252264876
-0,0492994878917258
-0,0494162952754194
-0,0496040413491091
-0,0498627314241386
-0,0501918358076955
-0,0505908567984725
-0,0510597370104641
-0,0515990512517336
-0,0522099446106688
-0,0528938044219894
-0,0536516813545904
-0,054483502631204
-0,0553871458004481
-0,0563574621296544
-0,057385352395078
-0,058457002963888
-0,059553385585302
-0,0606501100483431
-0,0617176954343133
-0,0627222946281485
-0,063626870254079
-0,0643927811612265
-0,0649817002288361
-0,0653577499336397
-0,0654897150780245
-0,0653531749940302
-0,0649323924815635
-0,0642218048019129
-0,0632269832040825
-0,0619649606515043
-0,0604638703812335
-0,0587618875813166
-0,0569055189449266
-0,0549473358874138
-0,0529432925679722
-0,0509498055186263
-0,0490207944110626
-0,0472048910061461
-0,0455430145559681
-0,044066487159405
-0,0427958234874407
-0,0417402787470627
-0,0408981807409877
-0,0402580110001014
-0,0398001412144778
-0,0394990794682336
-0,039326040374155
-0,039251627669418
-0,0392484093163217
-0,0392931745964244
-0,0393686893364097
-0,0394648072293234
-0,0395788488222922
-0,0397152207112808
-0,0398843108961639
-0,0401007568195939
-0,0403812354569286
-0,0407419655429736
-0,0411961373740108
-0,0417514935251718
-0,0424082736915015
-0,0431577095788271
-0,043981213541551
-0,0448503509890272
-0,0457276257104875
-0,0465680440884453
-0,0473213636331263
-0,0479348780488375
-0,0483565491917336
-0,0485382688811982
-0,0484390224966195
-0,0480277321989451
-0,0472855798204995
-0,0462076459592802
-0,0448037496918758
-0,0430984287255968
-0,0411300586418659
-0,0389491676539835
-0,0366160559252518
-0,0341978723310931
-0,0317653336470543
-0,0293892897236965
-0,0271373422699059
-0,0250707147752254
-0,0232415480665861
-0,021690762168921
-0,0204465834343509
-0,019523789526363
-0,0189236773872636
-0,0186347140727269
-0,018633790447753
-0,0188879656961197
-0,0193565681649603
-0,0199935063358351
-0,0207496427450962
-0,0215750928620458
-0,022421328864279
-0,0232429929950429
-0,0239993543417884
-0,0246553739470257
-0,0251823735626818
-0,0255583308166389
-0,0257678461329075
-0,0258018430270437
-0,0256570726312098
-0,0253354953279647
-0,0248436077124987
-0,0241917727545193
-0,0233935965772985
-0,0224653783814404
-0,0214256426962228
-0,0202947471547781
-0,01909454594613
-0,017848080303013
-0,0165792635197308
-0,0153125293827109
-0,0140724191162352
-0,0128830922120358
-0,0117677595736957
-0,0107480516297518
-0,00984334789747485
-0,00907010610480659
-0,0084412371092168
-0,00796557531023426
-0,00764749245099324
-0,00748669566203355
-0,00747823870143572
-0,00761275977676526
-0,00787694140203244
-0,0082541693314317
-0,00872535051727893
-0,00926983596690433
-0,00986638500306746
-0,0104941036032228
-0,0111332919261808
-0,0117661445237159
-0,0123772604630954
-0,0129539382944231
-0,0134862506845454
-0,0139669137106425
-0,0143909840623727
-0,0147554320023692
-0,0150586472284432
-0,0152999378959468
-0,015479079685992
-0,0155959623194595
-0,0156503664550574
-0,0156418860775448
-0,0155699924000955
-0,015434217129215
-0,0152344178224432
-0,0149710778623318
-0,0146455894916905
-0,0142604710081848
-0,0138194783509817
-0,0133275859493872
-0,0127908301326014
-0,0122160283990244
-0,0116104069433322
-0,0109811845517467
-0,0103351711436438
-0,00967844222605531
-0,00901614553698945
-0,0083524832753538
-0,00769089361584154
-0,00703443054098802
-0,00638631412583292
-0,00575059722983566
-0,00513287238028956
-0,00454092727506627
-0,00398525127306039
-0,00347929986652488
-0,00303943984100158
-0,00268452383341752
-0,00243507726623803
-0,00231212020405327
-0,00233568769245669
-0,0025231504732989
-0,0028874694058627
-0,00343553774637331
-0,0041667727666405
-0,00507211030825203
-0,00613353255306541
-0,00732422176943619
-0,00860938377624136
-0,00994772838205501
-0,0112935349804882
-0,0125991753192639
-0,0138179174966418
-0,014906800496918
-0,0158293508379456
-0,0165579146510636
-0,0170754004802631
-0,017376269171267
-0,0174666645448675
-0,0173636475847359
-0,0170935719205229
-0,016689712979233
-0,0161893306669533
-0,0156303996180163
-0,0150482766820821
-0,0144725886955837
-0,0139246128766535
-0,0134153875881758
-0,012944735104781
-0,0125013046877788
-0,0120636596533344
-0,0116023431964312
-0,0110827721347946
-0,0104687328659929
-0,00972619637492737
-0,00882713434077033
-0,00775300974572018
-0,00649763410023544
-0,00506912840398734
-0,00349079290895331
-0,00180077630316318
-5,05311580039408E-05
0,00169785853016215
0,00337529836917478
0,00490999370128657
0,00623212939469092
0,00727856528668575
0,00799718715427141
0,00835057620624894
0,00831871067870687
0,00790048722010068
0,00711394131832103
0,00599514760351761
0,0045958841122402
0,00298024105791131
0,00122043637947088
-0,000607839343563561
-0,00243019199435275
-0,00417804541251488
-0,00579257789597652
-0,00722778765823188
-0,00845247521032856
-0,00945102102242427
-0,0102229359935344
-0,0107812618813884
-0,0111499906848088
-0,0113607484597852
-0,0114490439623276
-0,0114504116072822
-0,011396779287667
-0,0113133650030408
-0,0112163545204467
-0,0111115402017775
-0,0109940150326794
-0,0108489232409415
-0,010653177730189
-0,0103779725170479
-0,00999185239077904
-0,00946405743547655
-0,00876784043629501
-0,00788346180869636
-0,00680059859056283
-0,00551995818843828
-0,00405395887550784
-0,00242642131051358
-0,000671301148027702
0,00116942507814757
0,00304853734077765
0,00491677477037173
0,00672619214492356
0,00843338918555716
0,0100023460530256
0,0114066355757186
0,0126308387568216
0,0136710601472202
0,01453451735803
0,0152382576043957
0,0158071270634224
0,0162711797322149
0,0166627566355115
0,017013489940881
0,0173514884209429
0,0176989407866721
0,0180703339286254
0,018471427696441
0,0188990614468093
0,0193417961206414
0,0197813249445513
0,0201945221082698
0,0205559468763033
0,0208405848298228
0,021026590756485
0,0210978002193075
