0,000478618784341213
0,00170943899349424
0,00318543024856234
0,0048488754114599
0,00663606208594363
0,00847969908866576
0,0103113601951231
0,0120638708438099
0,0136735669312136
0,0150823682328938
0,0162396209596235
0,0171036735915889
0,0176431571559224
0,0178379457017356
0,0176797756499222
0,017172504975962
0,0163319960574822
0,0151856106861513
0,0137713131389702
0,0121363879174868
0,0103357928315923
0,00843018502184924
0,0064836762199586
0,00456139253004023
0,00272693145318897
0,00103982285963599
-0,000446890681857139
-0,00168883683336888
-0,00265214799588448
-0,00331484937430663
-0,00366772369765023
-0,00371460308006006
-0,00347207028015054
-0,00296858543631719
-0,00224308758149281
-0,00134315023900761
-0,000322794779397517
0,000759917930622154
0,00184538895566043
0,00287494822005363
0,00379316913049255
0,00454993035371751
0,00510214704665581
0,00541511992395601
0,00546347731735101
0,00523171038748207
0,00471432276910607
0,00391563162747012
0,00284926657825161
0,00153741615366312
9,86926458220923E-06
-0,0016971071806564
-0,0035420217919237
-0,00547951920341247
-0,00746183008849237
-0,00944029636365421
-0,011366955869402
-0,013196164613143
-0,0148862241894008
-0,0164009685970093
-0,0177112503527289
-0,018796252933552
-0,0196445477133663
-0,0202548109812662
-0,0206361221215907
-0,0208077785567689
-0,0207985865753894
-0,0206456185428857
-0,0203924640692186
-0,0200870424133468
-0,0197790820905603
-0,0195174074143361
-0,0193471968200217
-0,0193073911644542
-0,0194284295743066
-0,0197304749268506
-0,0202222611661923
-0,0209006523191981
-0,0217509515148731
-0,0227479418076888
-0,0238575840692122
-0,0250392457569427
-0,026248292746975
-0,0274388486076931
-0,0285665144141864
-0,0295908486788611
-0,0304774307554225
-0,0311993700270776
-0,0317381737543963
-0,032083943904495
-0,032234932225579
-0,0321965377072574
-0,0319798762493269
-0,0316000845875441
-0,0310745364067946
-0,0304211468127163
-0,0296569224266419
-0,0287968804796826
-0,0278534150839318
-0,0268361371373075
-0,0257521614708593
-0,0246067663632418
-0,0234043114093821
-0,0221492739657922
-0,0208472545548151
-0,0195058086562221
-0,0181349853460934
-0,0167474897605998
-0,015358432347495
-0,0139846783717822
-0,01264386063751
-0,0113531614397988
-0,0101280015963398
-0,00898079131753537
-0,00791989758418653
-0,00694896521359853
-0,00606669544034228
-0,00526713977176892
-0,00454051273547455
-0,00387447044558003
-0,00325574863534433
-0,00267200964325042
-0,00211371774499147
-0,00157584975674711
-0,00105925487123739
-0,000571504114571952
-0,000127113563499794
0,000252917388012062
0,000542246234748197
0,000710932665875195
0,000727653662393347
0,000562202436889888
0,000188051314981147
-0,000415254795407381
-0,00126009871901678
-0,0023493783855996
-0,00367582376880026
-0,00522212000632795
-0,00696183833295467
-0,00886109957532964
-0,0108808236261463
-0,0129793596838747
-0,0151152521525593
-0,0172498802801669
-0,0193497181037964
-0,0213879947932192
-0,0233455914392339
-0,0252110837282609
-0,026979924132309
-0,0286528442245169
-0,0302336391568416
-0,0317265641044326
-0,0331336196477595
-0,0344520244840929
-0,0356721666856266
-0,0367762888147781
-0,0377381001125432
-0,0385234258189014
-0,0390919067088256
-0,039399659853973
-0,0394027139289835
-0,0390609483285558
-0,0383422032495855
-0,0372261941543693
-0,0357078626748279
-0,0337998281701329
-0,0315336678739931
-0,0289598440168885
-0,0261462060475813
-0,0231751157661226
-0,0201393623461713
-0,0171371421851972
-0,0142664654108634
-0,0116194084643645
-0,00927665476820512
-0,00730275032235803
-0,00574244883624593
-0,00461843561842131
-0,00393060794463361
-0,00365696145923284
-0,00375599843667351
-0,00417044622933232
-0,00483196430124552
-0,00566643589467347
-0,00659939316685797
-0,00756111713092516
-0,00849098694030856
-0,00934072430705124
-0,010076282030307
-0,010678251619853
-0,0111408025795672
-0,011469302632449
-0,0116768914972254
-0,0117803794094855
-0,0117959060858601
-0,0117348200459728
-0,0116002194538165
-0,0113845351993852
-0,011068439894721
-0,0106212413041248
-0,0100027766673178
-0,00916667824330133
-0,00806474363210261
-0,00665202971533449
-0,00489220728352926
-0,00276267259571014
-0,000258916652780711
0,00260229677641384
0,0057813011530662
0,00921567541399349
0,0128222505902472
0,0165008942667554
0,0201398352747722
0,023622151460528
0,0268329339374971
0,0296665719090766
0,0320335795432548
0,0338664130475415
0,0351238002369783
0,0357932206230815
0,0358913217438881
0,0354622246975713
0,0345738443886578
0,0333125131296522
0,0317763359656311
0,0300678103760347
0,0282863028749561
0,0265209852895065
0,0248447931966173
0,0233098815923643
0,0219449257727761
0,0207544595258866
0,0197202713453754
0,0188047071387293
0,0179555694512744
0,0171121720098006
0,0162120154569583
0,0151975032324391
0,0140221193847405
0,012655542139013
0,0110872635015474
0,00932841748646199
0,00741167607977575
0,00538923918645265
0,00332910805070382
0,0013099769872031
-0,000584806686571962
-0,00227368956176009
-0,00368321196440362
-0,00475362600290561
-0,00544336243459195
-0,00573198219173655
-0,00562138402113389
-0,00513519355446789
-0,00431641759014674
-0,00322359652225923
-0,00192581471876018
-0,000497022316093733
0,000989825494893535
0,00246829827459826
0,00388321384249123
0,00519415965610445
0,00637752976388854
0,00742693210304453
0,00835196905862559
0,00917554011454272
0,00992994614198597
0,010652178908025
0,0113788477760034
0,0121412226114522
0,0129608556842705
0,0138461878302412
0,0147904509246133
0,0157710586212197
0,0167505413561214
0,0176789421733995
0,0184974594926469
0,0191430130273477
0,0195533292133108
0,0196720994117243
0,0194537611419517
0,0188674893172348
0,017900057087193
0,0165573273579411
0,014864256957243
0,0128634246594304
0,0106122203550752
0,00817894445201054
0,00563815459937352
0,00306565377165444
0,000533535324572752
-0,00189431420821753
-0,00416590292662117
-0,00624373849251003
-0,00810617630782289
-0,00974744881647913
-0,0111764275484179
-0,0124142752363727
-0,0134912340475469
-0,0144428604333834
-0,0153060525067207
-0,0161152201067359
-0,0168989215172766
-0,0176772376061038
-0,0184600795829297
-0,0192465379883063
-0,0200252862307235
-0,0207759604499226
-0,0214713565603438
-0,0220802216622476
-0,0225703753655054
-0,0229118795811412
-0,0230799833674334
-0,0230576005495503
-0,0228371282362192
-0,0224214787132313
-0,021824269178106
-0,0210691867497133
-0,0201886138099741
-0,019221655407307
-0,0182117519438587
-0,0172040839743845
-0,0162429806805975
-0,0153695302158254
-0,0146195609099791
-0,0140221207810056
-0,0135985332893563
-0,013362054540185
-0,0133181058793413
-0,0134650103212472
-0,0137951249126117
-0,0142962364301989
-0,0149530759619715
-0,0157488090506331
-0,0166663711439924
-0,0176895412327847
-0,0188036771528118
-0,0199960711480311
-0,0212559208205865
-0,0225739456267283
-0,0239417099812501
-0,025350738779136
-0,0267915282207713
-0,028252563447122
-0,0297194544148042
-0,0311742930607293
-0,0325953189131294
-0,0339569581351343
-0,0352302739629742
-0,0363838363142395
-0,0373849866812795
-0,0382014431155969
-0,0388031608898339
-0,0391643390220731
-0,0392654428645636
-0,0390950998767505
-0,0386517207355504
-0,0379447020494326
-0,0369950806686969
-0,0358355329915818
-0,034509645224873
-0,0330704211141134
-0,0315780403766128
-0,0300969314519756
-0,0286922731965529
-0,0274260883112028
-0,0263531329278321
-0,0255168182976711
-0,0249454186577937
-0,0246488215263101
-0,0246160613019241
-0,0248138436782634
-0,025186218021162
-0,0256554898693051
-0,0261243898533434
-0,0264794335228954
-0,0265953245925104
-0,0263401782028778
-0,0255812771212019
-0,0241910279817472
-0,0220527612097422
-0,0190660201641227
-0,0151510133275478
-0,0102519570569141
-0,00433911227354854
0,00259058864211074
0,0105143254472524
0,0193854796340942
0,0291368267696102
0,0396845443564346
0,050932686336269
0,0627777419010877
0,0751128947752135
0,0878316307205906
0,100830404041629
0,114010163899139
0,127276651309889
0,140539498840745
0,15371028689979
0,166699822371009
0,179414996778596
0,19175564316851
0,203611836622596
0,214862068796272
0,225372671463283
0,234998770636447
0,2435869277349
0,250979476822041
0,257020408845952
0,26156249822327
0,264475227570697
0,265652955712304
0,265022703240269
0,262550907000329
0,258248524388751
0,25217395061006
0,244433343041327
0,235178118386786
0,224599588543044
0,212920915376634
0,200386776552808
0,187251327325684
0,173765200855621
0,16016239841826
0,146647970421879
0,133387373354742
0,120498305407565
0,108045678451152
0,0960401850881912
0,0844406798157295
0,0731603295223202
0,0620762194320256
0,0510418458400956
0,0399017055780752
0,0285070209775517
0,0167315316879778
0,00448625006776934
-0,00826788112070042
-0,0215103729896385
-0,0351553761600955
-0,0490501864080916
-0,0629783085501497
-0,0766670157800518
-0,0897990407347809
-0,102027754490323
-0,112994949845661
-0,122350162270187
-0,129770348440556
-0,134978706247717
-0,137761464032638
-0,137981587625384
-0,135588543291368
-0,130623500035489
-0,123219639287731
-0,113597544623662
-0,102055948521251
-0,0889583970549276
-0,0747166383287661
-0,0597717306178006
-0,0445739898034039
-0,0295629455564616
-0,0151484497700004
-0,00169398203485402
0,0104969665457091
0,0211907659521956
0,0302293640155392
0,0375317072528808
0,0430909981676318
0,0469681758502362
0,049282226382512
0,0501981004886482
0,0499131279543504
0,048642865767865
0,0466072987255211
0,044018231069235
0,0410685736528533
0,0379240548482685
0,0347176793582738
0,0315470432777987
0,0284744025090302
0,0255292004262206
0,0227126029193423
0,020003474990274
0,0173651695953608
0,0147524889040095
0,0121182188600817
0,00941872418619765
0,00661821367167061
0,00369143307147979
0,000624701990205499
-0,00258463192094722
-0,00593010624486487
-0,00939909380022843
-0,0129763780630642
-0,016647902609643
-0,0204042454309944
-0,0242434118137384
-0,0281726178542437
-0,0322088426639418
-0,0363780509347544
-0,0407131176159402
-0,0452506116178708
-0,0500267050692828
-0,055072559682362
-0,0604095954985101
-0,0660450657396338
-0,0719683437825296
-0,0781482764745536
-0,0845318769578755
-0,0910445269470581
-0,0975917417007903
-0,104062430291248
-0,110333468812316
-0,116275303782747
-0,121758224705032
-0,126658894136311
-0,130866703999021
-0,134289539057644
-0,136858570901222
-0,138531774596347
-0,139295949734223
-0,139167130893994
-0,138189381784157
-0,136432074565979
-0,133985853561994
-0,130957564128837
-0,127464487713704
-0,123628259496263
-0,119568853899025
-0,115399005873874
-0,11121939431238
-0,107114851821796
-0,103151787409321
-0,0993769211205671
-0,0958173386945081
-0,0924817861165855
-0,0893630444945522
-0,0864411600596505
-0,0836872563482023
-0,0810676284122389
-0,0785478134644128
-0,0760963483536827
-0,0736879599127853
-0,071305986418656
-0,0689438929779182
-0,0666058156525205
-0,064306143193655
-0,0620682159688163
-0,0599222839826358
-0,0579029154770556
-0,0560460811109398
-0,0543861541229337
-0,0529530634821333
-0,0517698156338658
-0,0508505631971362
-0,0501993492222726
-0,0498095976573531
-0,0496643593584111
-0,0497372633486121
-0,0499940698880576
-0,0503946794215266
-0,0508954228109958
-0,051451445364018
-0,0520190005680977
-0,0525574882473299
-0,0530311038169282
-0,0534100070921192
-0,0536709665576091
-0,0537974835821026
-0,0537794462655682
-0,0536124003800928
-0,0532965519993886
-0,0528356308229763
-0,0522357441167504
-0,0515043392027553
-0,0506493693896085
-0,0496787270495247
-0,0485999718555954
-0,0474203459611591
-0,0461470350104395
-0,0447876076985655
-0,0433505496721047
-0,0418458013136004
-0,0402852135676499
-0,0386828504099385
-0,037055088715641
-0,0354204932063165
-0,0337994724282972
-0,032213747874843
-0,030685689261554
-0,02923758217294
-0,0278908983771705
-0,0266656337708507
-0,0255797650521577
-0,0246488558219937
-0,0238858186633662
-0,0233008151864088
-0,0229012544290961
-0,0226918344817138
-0,0226745651123903
-0,0228487118869591
-0,023210614926431
-0,0237533569223196
-0,0244662830119972
-0,0253344063626531
-0,0263377639713408
-0,0274508132462171
-0,0286419776566172
-0,0298734561559987
-0,0311014043083147
-0,0322765745894998
-0,0333454702038621
-0,0342520234084071
-0,0349397595032703
-0,0353543559842017
-0,0354464579813775
-0,0351745711304784
-0,0345078259606987
-0,0334283972422708
-0,0319333695748641
-0,0300358671979128
-0,0277653101757226
-0,0251667176684851
-0,0222990474020764
-0,019232633106408
-0,0160458524634417
-0,0128212208384323
-0,00964115519498947
-0,00658368362344833
-0,00371838587762549
-0,00110283800445976
0,00122019967887822
0,00322466480918803
0,00490202648629559
0,00626102796683364
0,00732637625379966
0,00813649263549992
0,00874050491163333
0,00919471378756694
0,00955879870076659
0,00989203982390684
0,0102498225824044
0,010680660028214
0,0112239197650664
0,0119083801970091
0,0127516710373395
0,0137605811633016
0,0149321489591196
0,0162553916982076
0,0177134857997723
0,019286182214549
0,0209522324870094
0,0226916113529326
0,0244873496067832
0,0263268335767257
0,0282024808752342
0,0301117613996014
0,0320565927075706
0,0340421948436084
0,0360755368454894
0,0381635417896451
0,0403112366847424
0,042520036475692
0,0447863378904994
0,047100570232594
0,0494468090506154
0,0518030084470714
0,054141852841606
0,0564321738308559
0,0586408269293814
0,0607348806014069
0,0626839395752797
0,0644624085094674
0,0660515020406259
0,0674408232311372
0,0686293633474095
0,0696258194432696
0,0704481790918498
0,0711225797387024
0,0716815089773269
0,0721614669144539
0,0726002582272665
0,0730341156466277
0,073494875438259
0,0740074271262663
0,0745876436937474
0,0752409656383848
0,0759617647929898
0,076733555190846
0,0775300529167168
0,0783170199486388
0,0790547638565607
0,0797011111015342
0,0802146312109794
0,0805578659124904
0,0807003136752485
0,0806209367532953
0,0803099937511938
0,079770053310754
0,0790161096119202
0,0780747926910332
0,0769827400500662
0,0757842643775907
0,0745285094420388
0,0732663272301711
0,0720471303891322
0,0709159729310256
0,0699110888198673
0,0690620743928101
0,0683888403139836
0,0679013872960222
0,0676003836228712
0,0674784486045149
0,0675219814365881
0,0677133256907241
0,0680330306814353
0,0684619652134725
0,0689830575385747
0,0695824762731343
0,0702501268725962
0,0709794114596659
0,0717662793902742
0,0726076741967121
0,0734995517250137
0,0744346973539122
0,0754006015481309
0,0763776590469443
0,077337936481409
0,0782447074664819
0,0790528870111823
0,0797104143510585
0,0801605426002185
0,0803449033864866
0,0802071334908554
0,0796967863388607
0,0787732104336949
0,0774090638169135
0,0755931502171753
0,0733323077777365
0,0706521515674538
0,067596560534146
0,0642259004045471
0,060614077424731
0,0568446146246686
0,0530060239361312
0,0491868067688513
0,0454704473771931
0,0419307648287138
0,0386279606288482
0,0356056427632837
0,0328890282114297
0,0304844318825158
0,0283800486874764
0,0265479358150075
0,0249470126031407
0,02352682299326
0,0222317559642634
0,0210053959776149
0,0197946792733541
0,0185535614116869
0,0172459531072533
0,0158477497625156
0,0143478585671811
0,012748208469509
0,0110628057556852
0,00931596519595116
0,00753989884284275
0,0057718783801354
0,00405120108258996
0,00241618446612833
0,000901392784102342
-0,000464736824578977
-0,00166174510347694
-0,00267840354550242
-0,00351334274859577
-0,00417507339485086
-0,00468145312755989
-0,00505867918708174
-0,00533990295226387
-0,00556356898350932
-0,0057715791829526
-0,00600737440751389
-0,00631401374265793
-0,00673231813490159
-0,0072991323181365
-0,00804574849957483
-0,00899652792938871
-0,0101677522840986
-0,0115667351159218
-0,013191223218129
-0,0150291171248735
-0,0170585375392432
-0,0192482589201216
-0,0215585218957734
-0,023942222341194
-0,0263464573312561
-0,0287143878743708
-0,0309873570468974
-0,033107181939988
-0,0350185208725978
-0,0366712056298125
-0,0380224236475885
-0,0390386380509165
-0,0396971444542812
-0,0399871818357214
-0,0399105392071242
-0,0394816282300002
-0,0387270219664299
-0,037684489081622
-0,036401578655101
-0,0349338313564234
-0,0333427067847955
-0,0316933236789193
-0,0300521097275848
-0,0284844518130823
-0,0270524272459719
-0,0258126838072976
-0,0248145231709155
-0,0240982303340368
-0,0236936823427639
-0,0236192635909048
-0,0238811122214896
-0,0244727219204093
-0,0253749242532717
-0,0265562768400781
-0,0279738801481114
-0,0295746386969228
-0,0312969697404945
-0,0330729434393705
-0,0348308135591488
-0,036497868227171
-0,0380034985875605
-0,0392823524641305
-0,0402774139546215
-0,0409428319410865
-0,041246314146693
-0,0411709111380462
-0,0407160379594941
-0,0398976197985575
-0,0387473005516152
-0,0373107161256719
-0,035644903119794
-0,0338149825305038
-0,0318903210964397
-0,0299404237070067
-0,0280308434707458
-0,0262194073691003
-0,0245530424700541
-0,0230654501112227
-0,0217758152321482
-0,0206886592952994
-0,0197948540588302
-0,0190737173963611
-0,0184960197129814
-0,0180276486683925
-0,017633618517487
-0,0172820745614638
-0,0169479370121289
-0,0166158534610781
-0,0162821838066334
-0,0159558218506356
-0,0156577573198022
-0,0154193923665643
-0,015279738045122
-0,015281718910423
-0,0154678984001947
-0,0158759961289624
-0,0165345949621413
-0,0174594278083724
-0,0186505916193385
-0,0200909623593384
-0,0217459857969473
-0,0235649033081494
-0,025483349459334
-0,0274271396802917
-0,029316962254478
-0,0310736083891938
-0,0326233244376257
-0,0339028559073996
-0,034863775072654
-0,0354757409323872
-0,0357284270164428
-0,0356319615739145
-0,0352158465426385
-0,0345264458398439
-0,0336232492789024
-0,0325742159727664
-0,0314505722784936
-0,0303214784426042
-0,0292489822398097
-0,0282836472990981
-0,0274611817114903
-0,0268003048399972
-0,0263019850272879
-0,0259500674674443
-0,0257131997342418
-0,0255478617486485
-0,0254022255343888
-0,0252205141991971
-0,0249475030267245
-0,0245328094959406
-0,0239346518782782
-0,0231228137616173
-0,0220806283315348
-0,020805884080109
-0,0193106446812461
-0,0176200620965591
-0,0157703363817509
-0,0138060324424633
-0,0117769993488181
-0,00973515008627613
-0,00773134938118056
-0,00581262703549182
-0,00401988829425327
-0,00238623653696194
-0,000935962992705262
0,000315800845463899
0,00136282461265662
0,00220701192048818
0,00285724969713858
0,00332801158045982
0,00363785111530106
0,00380790633290741
0,00386051385351342
0,00381800175379481
0,0037017001075901
0,00353118010105431
0,00332371003378286
0,00309390141470323
0,00285351162158433
0,00261137084513919
0,00237340877724755
0,00214276834299414
0,00192000680499834
0,00170339574937498
0,00148933807945673
0,00127292018931078
0,00104860994054247
0,000811096116711275
0,000556244048694914
0,000282117595943656
-1,00070685433089E-05
-0,000314731637420967
-0,000621839516203953
-0,000915926487125197
-0,00117646196745903
-0,00137836150343139
-0,00149311479647501
-0,00149046621400228
-0,00134059011023118
-0,00101664630539406
-0,000497547500604019
0,000229273821360114
0,00116534074053514
0,00229910101434411
0,00360462876475232
0,00504126129752437
0,00655431506374275
0,0080769473974591
0,00953314004762973
0,0108416838936575
0,0119209499371207
0,0126941483527706
0,013094713293132
0,0130714132298811
0,0125927798743169
0,0116504756212445
0,0102612795707094
0,00846746212122867
0,00633543169703937
0,00395266583576654
0,00142307241501545
-0,00113894581144659
-0,00361533984442442
-0,00589170921451519
-0,00786452702173815
-0,00944777019793148
-0,0105784623005119
-0,0112207083127168
-0,0113679078399582
-0,0110429666278066
-0,0102964759905563
-0,0092029835501423
-0,00785562414391663
-0,00635950498803954
-0,0048243338786941
-0,00335683559450085
-0,00205351512445499
-0,000994295836603581
-0,000237488867930391
0,000183557106338069
0,000261910015700004
1,6545453125364E-05
-0,000510040584594455
-0,00125587003483334
-0,00214482312275868
-0,00309283999342924
-0,00401448815855428
-0,00482938613433859
-0,00546800021906602
-0,00587639545759711
-0,0060196172256339
-0,00588349788800572
-0,00547481335833855
-0,00481984613788716
-0,00396153379971429
-0,00295548532237514
-0,00186522448681356
-0,000757064550559767
0,000304970748267469
0,00126378756351219
0,00207308443402253
0,00270017529786424
0,00312760626978672
0,00335350296011829
0,00339068854445864
0,00326470778540944
0,00301097153190394
0,00267129432399701
0,00229013108493234
0,00191082617176797
0,00157217015024464
0,00130551941449391
0,00113267567547057
0,00106465202881279
0,00110137605845673
0,00123230457302386
0,00143785501455405
0,0016915003429779
0,00196233108493398
0,00221786261442573
0,00242685846276679
0,00256195092795613
0,00260186656051927
0,00253310326903284
0,00235095409341874
0,0020598260074632
0,00167285622814266
0,00121087946313505
0,000700843878491938
0,000173808563633431
-0,000337320954714141
-0,000800151031723995
-0,0011850846303434
-0,00146737720204076
-0,00162883062186135
-0,00165902213168093
-0,00155600072971783
-0,00132642168640095
-0,000985128173696744
-0,000554224817708426
-6,17191035140466E-05
0,000460168843081896
0,000976910766464982
0,0014536634469577
0,00185722518137962
0,00215783867452188
0,00233073902215052
0,00235736679130096
0,00222619151705473
0,00193311833238993
0,00148147793860291
0,000881625840924423
0,000150199059284982
-0,000690903955727645
-0,00161574260390513
-0,00259566926675097
-0,00360069724642426
-0,00460082436982767
-0,00556724569441907
-0,0064734028583047
-0,00729583385015726
-0,0080148039007072
-0,00861471442552734
-0,00908430124466781
-0,00941664471616554
-0,00960902230135338
-0,00966263816432952
-0,00958226478317555
-0,00937582865312394
-0,00905396668586927
-0,00862957278159672
-0,00811734624962699
-0,00753334632682324
-0,00689455088172241
-0,00621841326510276
-0,0055224096576455
-0,00482357040060717
-0,00413799256503944
-0,00348033704102447
-0,00286332103538945
-0,00229722519226141
-0,00178944258456754
-0,00134410350207833
-0,000961814281628568
-0,000639549493986768
-0,000370733995486251
-0,000145544294261005
4,85525925415337E-05
0,000226019715479269
0,000402245262000205
0,000592347177886271
0,000809842804524635
0,00106525810963541
0,00136476713145074
0,00170896346384989
0,00209187041875295
0,0025002936713032
0,00291360896336707
0,00330405764781129
0,00363759500161031
0,00387530154608239
0,00397532798783903
0,00389530236772756
0,00359508655816684
0,0030397316510516
0,00220245134948644
0,00106741227360662
-0,000367867300334189
-0,00209071151915294
-0,00407225244106452
-0,0062673077344049
-0,00861526003723723
-0,0110419652281794
-0,013462647663762
-0,015785668900781
-0,0179169877764618
-0,0197650693473668
-0,0212459532014761
-0,0222881624829278
-0,022837126928578
-0,0228588081946451
-0,0223422539543646
-0,0213008670923059
-0,0197722544588659
-0,0178166111248236
-0,0155136946969822
-0,0129585429347344
-0,010256179299118
-0,00751562804109464
-0,00484361672966023
-0,00233837483482505
-8,39390175284639E-05
0,00185465181544991
0,00343494456857607
0,00463919674168611
0,00547489154950744
0,00597360905477384
0,00618833488321457
0,00618939904614408
0,00605933494778994
0,00588702518928995
0,00576155026407526
0,00576617466344801
0,00597289068735329
0,00643789434478229
0,00719829363744395
0,00827025299452178
0,00964866626091482
0,0113083332462479
0,0132065007405581
0,0152865271790099
0,0174823489003801
0,0197233716064448
0,0219393874478003
0,0240651277917138
0,0260441031435633
0,0278314512243777
0,0293956058455426
0,0307187051427414
0,0317957689037682
0,0326327817110091
0,0332439123522919
0,0336481724906251
0,0338658628133594
0,0339151690151869
0,0338092518754152
0,0335541269958652
0,0331475547173437
0,032579065830707
0,0318311421575406
0,0308814621122249
0,0297060194174702
0,0282828370911775
0,0265959361922114
0,024639185159626
0,0224196540276122
0,0199601287490702
0,0173005020023028
0,0144978432851583
0,0116250558529511
0,00876814255116954
0,00602221748378631
0,00348650630836653
0,00125866608665972
-0,000571181200977566
-0,00192627435292059
-0,00274847063573271
-0,00300254117933665
-0,00267917322474892
-0,00179643735991095
-0,000399585500078058
0,00144083670606561
0,00363246019070219
0,00606593125778593
0,00862080932511678
0,0111721418477959
0,0135972905158277
0,0157825695901017
0,0176292753270798
0,0190587328633553
0,0200160595479935
0,0204724355969451
0,0204257769219398
0,0198998131835911
0,0189416786438898
0,0176182168920652
0,0160112767557634
0,0142123309739404
0,0123167786219479
0,0104182959134925
0,0086035788856935
0,00694777838427129
0,00551086694507192
0,00433510392541612
0,00344368547311468
0,00284058562849001
0,00251151970433062
0,00242589595044076
0,00253957018981562
0,0027981830991437
0,0031408421884048
0,00350391001667622
0,0038246752247357
0,00404471099801044
0,00411276329553905
0,00398705488241788
0,00363693711584203
0,00304386601590746
0,00220171940837793
0,00111650554354003
-0,000194460887297885
-0,00170382259078986
-0,00337578226882548
-0,00516794208587794
-0,00703328342014285
-0,00892219997282102
-0,0107845094379861
-0,0125713818052803
-0,0142371344936114
-0,0157408548647509
-0,0170478186582071
-0,0181306784724283
-0,0189703999507297
-0,0195569255575851
-0,0198895476699839
-0,0199769751832338
-0,0198370818245124
-0,0194963305791827
-0,0189888774009684
-0,0183553686599168
-0,0176414601248266
-0,0168960998803961
-0,0161696323252351
-0,0155117940325702
-0,0149696834641281
-0,0145857941040955
-0,0143962035503292
-0,0144290088151502
-0,0147030902992289
-0,0152272737930282
-0,0159999420208075
-0,0170091256270577
-0,01823307935383
-0,0196413238766555
-0,0211961088455578
-0,0228542295576315
-0,0245691096881635
-0,0262930467398741
-0,0279795062018999
-0,0295853454299311
-0,0310728492791991
-0,0324114665940558
-0,0335791495687886
-0,0345632163316499
-0,0353606802160057
-0,0359780162355878
-0,0364303652336812
-0,0367402077969488
-0,0369355718715043
-0,0370478684962057
-0,0371094774041697
-0,0371512266204586
-0,0371999257549101
-0,0372761197859136
-0,0373922273282169
-0,0375512137244721
-0,0377459244420849
-0,0379591685916895
-0,0381645971546544
-0,0383283678563165
-0,0384115315390154
-0,0383730170905702
-0,0381730377240854
-0,0377766951472606
-0,0371575242648682
-0,0363007033703587
-0,0352056562495509
-0,0338877949301211
-0,0323791951401921
-0,0307280593282119
-0,0289969010847087
-0,0272594750904063
-0,0255965720588886
-0,0240908913974832
-0,0228212879422043
-0,0218567558200776
-0,0212505558518086
-0,0210349079784318
-0,0212166540570031
-0,0217742484917381
-0,0226563565910883
-0,023782237864357
-0,0250439706355518
-0,026310444092439
-0,027432914187206
-0,0282518010240923
-0,0286043074126067
-0,0283323697384253
-0,0272904196845541
-0,025352442361847
-0,0224178636524392
-0,0184158842529272
-0,0133079940323956
-0,00708853907494966
0,000216635822917838
0,00855329664792481
0,0178433724860103
0,0279905297653796
0,0388862706186159
0,0504160226086889
0,0624646978007005
0,0749212554380335
0,0876819002034956
0,100651679404378
0,113744396494023
0,126880921943977
0,139986141270989
0,152984919718425
0,165797570723732
0,17833538039626
0,190496755768849
0,202164527744689
0,213204852154787
0,223468020396986
0,232791325072279
0,241003939506448
0,247933578878501
0,253414531610267
0,257296498895065
0,259453571981689
0,259792622076357
0,258260383180851
0,254848575571715
0,249596543433344
0,242591055760234
0,233963131950122
0,22388198594445
0,212546416590251
0,200174187725848
0,186990120957122
0,173213751332292
0,1590474592363
0,144665983881585
0,130208143497127
0,115771439316301
0,101410014932705
0,0871361945459033
0,0729255517987774
0,058725186246963
0,0444646284992705
0,0300685780651513
0,0154705174690884
0,000626155535731448
-0,0144743600834866
-0,0297964540721594
-0,0452542085394793
-0,060707163882788
-0,0759612182384165
-0,0907737176625039
-0,104862528277434
-0,117918592691912
-0,129621217341567
-0,139655133747868
-0,147728239870433
-0,153588867516286
-0,157041442240143
-0,157959501451989
-0,156295206935738
-0,152084716989353
-0,145449054172233
-0,136590397691676
-0,125784024000141
-0,113366394714572
-0,0997201287754883
-0,0852567801995063
-0,0703984623383768
-0,0555594076169571
-0,0411285268712139
-0,0274539383856139
-0,0148302820472251
-0,00348943116040767
0,0064050211362795
0,0147593750572956
0,02154766014686
0,0268060472053353
0,0306243853718343
0,0331355637809602
0,0345034933548849
0,0349105423021875
0,0345452389448853
0,0335909818744821
0,0322163780076312
0,0305676746301066
0,0287635747389887
0,0268925396295418
0,0250125024044957
0,0231527535224546
0,0213176253659874
0,0194915051639325
0,0176446494681759
0,0157392604078546
0,0137353125256618
0,0115956844781756
0,00929024508967655
0,00679865909452494
0,00411180424164696
0,00123181776573714
-0,0018290933603415
-0,00505084616957119
-0,00840837480873608
-0,0118748758198874
-0,0154250475924985
-0,0190379862011689
-0,0226994479198578
-0,026403259389791
-0,0301517428853745
-0,0339551185484327
-0,0378299397485485
-0,0417967040937386
-0,0458768542772274
-0,0500894345624668
-0,0544476967878421
-0,0589559528584677
-0,0636069494165177
-0,0683799972743768
-0,0732400274781579
-0,0781376729597405
-0,0830103958043784
-0,087784601600942
-0,0923786102153687
-0,0967062919183754
-0,100681133239744
-0,104220470881736
-0,10724962562492
-0,109705680943173
-0,111540681101547
-0,112724067738076
-0,113244228342828
-0,113109090137556
-0,112345754020227
-0,110999221101116
-0,109130315131591
-0,106812944859656
-0,104130879054678
-0,101174222721648
-0,0980357859886867
-0,0948075283287057
-0,0915772419694181
-0,0884256118548251
-0,0854237579497245
-0,0826313316768669
-0,0800952043126737
-0,0778487533778168
-0,0759117250995264
-0,0742906280108113
-0,0729795952594981
-0,0719616412811948
-0,0712102317716321
-0,0706910836904068
-0,0703641134382219
-0,0701854554299955
-0,0701094791046526
-0,0700907391920978
-0,0700858012021814
-0,0700548912420298
-0,0699633262555077
-0,0697826876667014
-0,0694917083735699
-0,0690768503553969
-0,0685325580925811
-0,0678611817713747
-0,0670725739523428
-0,0661833739657314
-0,0652160055368916
-0,0641974246218164
-0,0631576656129024
-0,0621282442839145
-0,0611404843779359
-0,0602238408888935
-0,0594042962394642
-0,0587029052040307
-0,0581345602977246
-0,0577070413604839
-0,0574204014209082
-0,0572667260439631
-0,0572302859435047
-0,0572880835371345
-0,0574107743584801
-0,0575639249221179
-0,05770955087215
-0,0578078640834234
-0,057819145737705
-0,0577056549975758
-0,0574334802029085
-0,0569742417378209
-0,0563065627382646
-0,0554172352587228
-0,0543020247226342
-0,0529660735666908
-0,0514238849049661
-0,0496988876281165
-0,0478226044530716
-0,0458334629238848
-0,043775305258887
-0,0416956654394851
-0,0396438905216071
-0,0376691875310572
-0,0358186775323707
-0,0341355348218907
-0,03265728224759
-0,0314143041183483
-0,0304286268858308
-0,0297130056291946
-0,029270342150768
-0,0290934489048238
-0,0291651624864757
-0,0294588012696288
-0,029938953983504
-0,0305625793238287
-0,0312803906717582
-0,0320384941308564
-0,03278024183081
-0,0334482553643243
-0,0339865660775807
-0,0343428097843194
-0,0344704037219984
-0,0343306239934046
-0,0338944934327177
-0,0331443841687451
-0,0320752375958522
-0,0306953084415754
-0,0290263503239284
-0,0271031783930883
-0,0249725704951751
-0,0226915012286563
-0,0203247418894704
-0,0179419014776493
-0,0156140267942348
-0,0134099198481391
-0,0113923646888774
-0,00961447987032284
-0,00811642388816723
-0,00692267678789849
-0,00604010039945458
-0,00545694235843415
-0,00514289663376279
-0,00505026859244192
-0,00511621983733648
-0,00526599235540011
-0,00541693872741544
-0,00548312127914366
-0,00538019371382776
-0,00503024871800099
-0,00436630765051421
-0,00333614536643665
-0,00190518415653278
-5,82533351605353E-05
0,00219990913099173
0,00484544532122289
0,00783739326445636
0,0111207748741675
0,0146305197838577
0,0182959259600238
0,0220453184670466
0,0258105553470667
0,0295310455876819
0,033156987497128
0,0366516029760442
0,0399922285727627
0,0431702205717565
0,0461897303983782
0,0490654997603434
0,051819904101849
0,0544795312226313
0,0570716143168906
0,0596206424906779
0,0621454469182551
0,0646570096756544
0,0671571698148545
0,069638314229592
0,0720840474326943
0,0744707432134158
0,0767698006939316
0,0789503649623646
0,0809822338919975
0,0828386613359233
0,0844987834456731
0,0859494375197551
0,0871862072138306
0,0882136077214033
0,0890444117995307
0,0896982036999617
0,0901993247434525
0,0905744339361779
0,0908499438579167
0,09104960244673
0,091192474268771
0,0912915320761771
0,0913530051527742
0,0913765514769431
0,0913562339787718
0,091282195776437
0,0911428538002768
0,0909273723021729
0,0906281433794052
0,0902429945256529
0,0897768644332251
0,0892427361124645
0,0886616865380792
0,088061997937717
0,0874773693195821
0,0869443588997135
0,0864992697457069
0,0861747540842531
0,0859964499309179
0,0859799728277082
0,0861285641552027
0,0864316471714061
0,0868644668818704
0,0873888966928079
0,0879553919557347
0,0885059673984015
0,0889779815895207
0,0893084357718017
0,0894384437898427
0,0893175093140666
0,0889072582661636
0,0881843174451769
0,087142101115569
0,0857913594408754
0,0841594478547981
0,0822883852244613
0,0802318711327919
0,0780515194861859
0,0758126290916578
0,0735798461491565
0,0714130757856487
0,0693639698088152
0,0674732587464672
0,0657691136620503
0,0642666250330113
0,0629683814616846
0,0618660300140662
0,0609426120484455
0,0601754017488104
0,0595389354096567
0,059007911392839
0,0585596641803689
0,0581759686174276
0,0578440070090931
0,0575564246035753
0,0573104989607621
0,0571065458526939
0,0569457689560658
0,0568278241427785
0,056748405107322
0,0566971614793897
0,0566562326083267
0,0565996221705255
0,0564935559252799
0,0562978650976958
0,0559683305645314
0,0554598187075566
0,0547299488076444
0,0537429634439764
0,0524734347739262
0,0509094353300033
0,0490548334455085
0,0469304385553743
0,0445738152081464
0,0420376986006757
0,03938706873749
0,0366950636520821
0,0340380231048159
0,0314900423578929
0,0291174724188686
0,0269738227313647
0,0250955020885042
0,0234987745649845
0,0221782140141584
0,0211068208037534
0,0202378281062831
0,0195080839267297
0,0188427614373553
0,0181610358099666
0,0173822807617666
0,0164322900973453
0,0152490230921015
0,0137874084917387
0,0120228173513591
0,00995292364044541
0,0075978043036191
0,00499827599919072
0,0022126116368548
-0,000688086361635572
-0,00362546883691758
-0,00652001400525738
-0,00929709015055842
-0,0118925085806592
-0,0142571149726518
-0,0163600515261717
-0,0181904371528743
-0,0197573483203385
-0,0210881275179336
-0,0222251872827312
-0,0232216033593572
-0,0241358902920424
-0,0250264182687647
-0,0259459560448351
-0,0269368093577884
-0,028026969042699
-0,0292275930774404
-0,0305320299552655
-0,031916457242456
-0,0333420704088929
-0,0347586248384499
-0,0361090195045084
-0,0373345236746863
-0,0383801953619763
-0,039200026221488
-0,0397613730750629
-0,0400482987311058
-0,0400635386556046
-0,0398289271331756
-0,0393842467457438
-0,0387845971778727
-0,0380965023699594
-0,0373930785901827
-0,0367486615501121
-0,0362333321528117
-0,0359077846992491
-0,0358189484332628
-0,0359967063632111
-0,0364519604192061
-0,037176177522183
-0,0381424270055661
-0,0393077966705053
-0,0406169630233731
-0,042006600291513
-0,0434102500986325
-0,0447632441692473
-0,0460072781573455
-0,0470942746381144
-0,0479892434839896
-0,0486719417118121
-0,0491372438849885
-0,0493942485051494
-0,049464255388128
-0,0493778441710449
-0,0491713566051234
-0,0488831289958874
-0,0485498325454356
-0,0482032578358139
-0,0478678276406792
-0,0475590448053174
-0,0472829864694411
-0,0470368514569467
-0,0468104640028432
-0,0465885438302983
-0,0463534786508604
-0,046088287351501
-0,0457794449898885
-0,0454192558804665
-0,0450075071953817
-0,0445522083555657
-0,0440693142652131
-0,0435814344268001
-0,0431156352970238
-0,0427005398118859
-0,0423630064048132
-0,0421247222359171
-0,0419990662244992
-0,0419885841819854
-0,0420833713924492
-0,0422605810372064
-0,0424851764649507
-0,0427119303205403
-0,0428885543733694
-0,0429597315608101
-0,0428717269030358
-0,0425771858389453
-0,0420396941685399
-0,0412376772730935
-0,0401672583182164
-0,0388437729526122
-0,0373017455059192
-0,0355932599350743
-0,0337847967977669
-0,0319527432240355
-0,0301779040920252
-0,0285394382895298
-0,0271087050508518
-0,0259435258016901
-0,0250833441303389
-0,0245457016513023
-0,0243243455848195
-0,0243891531649082
-0,0246879094664195
-0,0251498215883402
-0,025690506626815
-0,0262180661995996
-0,026639767450219
-0,0268687977197975
-0,0268305522698424
-0,0264679524580403
-0,0257453725115034
-0,024650869646417
-0,0231965547057858
-0,0214170964430377
-0,0193665085415014
-0,0171135109517558
-0,0147358738386893
-0,0123142333539484
-0,00992590675469011
-0,00763922699734609
-0,00550886481368744
-0,00357251429077867
-0,00184919447802583
-0,000339275569581476
0,00097381348492325
0,00212038520315654
0,00314011872775195
0,00407692564589391
0,00497353334613602
0,00586628158424094
0,00678060328200146
0,0077275951940706
0,00870198421091162
0,0096816698554036
0,0106288842279197
0,0114928695123155
0,0122138424021111
0,0127279055422788
0,0129724873238354
0,0128918493518262
0,0124421985269875
0,0115959774014826
0,010344978379193
0,00870202761225812
0,00670110402617752
0,00439588728829096
0,00185685477092269
-0,000832838815779201
-0,003582373529796
-0,00629877922116937
-0,00889253445336814
-0,0112828345642096
-0,0134021513131524
-0,0151997725135033
-0,0166440982895712
-0,0177235730905201
-0,0184462404458829
-0,0188380116900137
-0,0189398322816192
-0,0188040029968593
-0,0184899631944591
-0,0180598667547614
-0,0175742777312558
-0,0170882840566696
-0,0166482775787232
-0,0162895826279565
-0,0160350395542289
-0,0158945709684077
-0,0158656833246251
-0,0159347907736711
-0,0160791965212492
-0,0162695323167388
-0,0164724406171762
-0,0166532861437358
-0,0167787022054633
-0,0168188092480742
-0,0167489846713644
-0,0165511096364665
-0,0162142659101044
-0,0157348997095432
-0,0151165066412439
-0,0143689197843045
-0,0135073004326029
-0,0125509377961132
-0,0115219609122557
-0,0104440548048423
-0,00934125585165255
-0,00823688094131618
-0,00715262392798099
-0,00610783343134071
-0,00511897001286729
-0,00419922936525545
-0,0033583118380337
-0,00260231715938448
-0,00193374574360897
-0,00135159321094609
-0,00085153114133772
-0,000426173066731738
-6,54288848806381E-05
0,000243047785194567
0,000513316822558919
0,000760516333605632
0,00100014606513934
0,00124729072517811
0,00151581493791112
0,00181757099757434
0,00216166748264962
0,00255384987065394
0,00299604269152191
0,00348609609458902
0,0040177681985039
0,0045809590094684
0,00516219331991507
0,00574533048521226
0,00631246019132813
0,00684492713505701
0,0073244156274018
0,00773401880202478
0,00805921714301365
0,00828869761369395
0,00841495728046295
0,00843465290490168
0,00834867892652274
0,00816197863383247
0,00788311502067731
0,00752364679866589
0,0070973694873765
0,00661949008461824
0,00610580574368007
0,00557195204079322
0,00503277534840131
0,00450186771316811
0,0039912831405047
0,00351143332854561
0,00307114082124977
0,002677810344939
0,00233766655769358
0,00205599990582535
0,00183736250622467
0,00168566300751501
0,00160412262864293
0,00159507276003809
0,00165959587874355
0,00179703393431366
0,00200440952215679
0,00227582283738934
0,00260189963536394
0,00296937070726704
0,0033608608141936
0,00375495442050635
0,00412658746599306
0,00444779008109735
0,00468877642770399
0,00481934708096342
0,00481053914259143
0,00463643224624268
0,00427599725640442
0,00371486085852903
0,00294685490508244
0,00197522511542276
0,000813389522886284
-0,000514837901537011
-0,0019756103365512
-0,00352601172735829
-0,0051155940407804
-0,00668842095491031
-0,00818551394462188
-0,00954756624629212
-0,0107177685137666
-0,011644578922923
-0,0122842710582025
-0,0126031052547993
-0,012578992386103
-0,0122025517361595
-0,0114775041958828
-0,0104203856221473
-0,00905960953865957
-0,00743395010396133
-0,00559055230597904
-0,00358260400529765
-0,00146682177564753
0,000699091656993061
0,00285886636518521
0,00495982524091678
0,00695467569501214
0,00880285645882989
0,0104713997039267
0,0119353063281362
0,013177467582816
0,0141881964033349
0,0149644545554081
0,0155088754574216
0,0158286865956289
0,0159346300160113
0,0158399655404392
0,0155596209246335
0,0151095285309919
0,0145061619015526
0,0137662606164339
0,0129067104943421
0,0119445305712865
0,0108969097452586
0,00978123509004247
0,00861506038402333
0,00741597635683698
0,006201361847665
0,00498801534101821
0,00379168679965551
0,00262654795161212
0,00150465308997258
0,000435450340608106
-0,000574595738920901
-0,00152221570658921
-0,00240733945485915
-0,00323287012825743
-0,00400422686912802
-0,00472867896276692
-0,00541451629785142
-0,00607011993796204
-0,00670300996518113
-0,00731895406462715
-0,00792121873132777
-0,00851003540462682
-0,00908233698884266
-0,00963179753331425
-0,0101491813504066
-0,0106229799812392
-0,0110402887863104
-0,0113878520650677
-0,0116531887280874
-0,0118257013244881
-0,0118976706773831
-0,0118650466861199
-0,0117279624024503
-0,0114909218813259
-0,0111626405096889
-0,0107555470102573
-0,0102849863613094
-0,00976818971197622
-0,00922309852794877
-0,00866714366561616
-0,0081160845181819
-0,00758300827407401
-0,00707757500552436
-0,00660557192921534
-0,00616881166751875
-0,00576537719152611
-0,00539018321605486
-0,00503579315195883
-0,00469340516110883
-0,00435390288177844
-0,0040088578532909
-0,00365137263370934
-0,00327666623526756
-0,00288232602376674
-0,00246818096577222
-0,00203578761107205
-0,00158755943108632
-0,0011256087053661
-0,000650404603255551
-0,000159378199388809
0,000354377851496051
0,000903162390692142
0,00150532731067244
0,00218542486332111
0,00297375168266325
0,00390524422456429
0,00501773109250233
0,00634960180653244
0,00793700483492261
0,00981073589518403
0,0119930165894814
0,0144943898730465
0,0173109699651894
0,0204222784781679
0,02378987533093
0,027356953295901
0,0310490108992746
0,0347756530994806
0,0384334968623093
0,0419100842312521
0,0450886338714041
0,0478533984008764
0,0500953437669326
0,0517178323765766
0,0526419765222951
0,0528113344677095
0,0521956486109759
0,0507933722292128
0,0486327958762509
0,0457716627921783
0,0422952499479387
0,0383129821857065
0,033953735593562
0,0293600670973901
0,0246816750101258
0,0200684454702201
0,015663468914104
0,0115964168581684
0,00797765164253176
0,00489340126450447
0,00240227030397052
0,000533279849036117
-0,000714460983414672
-0,00137044632360977
-0,00148991964411685
-0,00114965886647829
-0,000442665581055218
0,000527911994835806
0,0016552486702962
0,0028353101851748
0,00397292896234568
0,00498712569457894
0,00581536576529719
0,00641650986653293
0,00677230334470603
0,00688734325630259
0,00678755971270275
0,00651734247459978
0,00613552876755574
0,00571053840145082
0,00531499293789313
0,00502018363152451
0,00489075646575301
0,00497996176191521
0,00532577217483502
0,0059481095580543
0,00684734269683149
0,00800412977580481
0,00938058783065171
0,0109226826692699
0,0125636529266025
0,0142282164321426
0,0158372602394609
0,0173126904255461
0,0185821154732657
0,0195830573800496
0,0202664256566556
0,0205990476855116
0,0205651199127066
0,0201665226249016
0,0194220207976694
0,0183654488977142
0,017043043269345
0,0155101373911194
0,0138274695840041
0,0120573678361592
0,0102600719228068
0,00849043008064402
0,00679516862973591
0,00521088172599219
0,00376282925660396
0,00246456857743299
0,00131838515364064
0,000316432677317112
-0,000557551336073722
-0,00132612032882054
-0,00201576719842602
-0,00265453252166188
-0,00326974712209059
-0,00388605994941485
-0,00452386899099534
-0,00519823333700526
-0,00591830208642424
-0,00668725400997474
-0,00750270396302607
-0,00835750059330251
-0,00924081682455724
-0,0101394209918625
-0,0110390125913188
-0,0119255118170247
-0,0127862051644407
-0,0136106686270814
-0,0143914133614773
-0,0151242239733533
-0,0158081847282135
-0,0164454121744973
-0,0170405324533858
-0,0175999569345824
-0,0181310202303187
-0,0186410499860859
-0,0191364384058135
-0,0196217817865224
-0,0200991471595587
-0,0205675152739792
-0,0210224374311207
-0,0214559308286221
-0,0218566237296798
-0,0222101484521931
-0,0224997672873234
-0,0227072043334978
-0,0228136451837409
-0,0228008567349363
-0,0226523714472289
-0,0223546745525878
-0,0218983294281903
-0,0212789760180615
-0,0204981401802101
-0,0195637983845623
-0,0184906523404457
-0,0173000816764975
-0,0160197592355343
-0,0146829320651118
-0,013327390711249
-0,011994168639813
-0,0107260311151238
-0,00956582723176926
-0,00855478876618483
-0,00773086409381622
-0,00712717404181548
-0,00677066911592429
-0,00668105452795759
-0,00687003182117725
-0,00734088510851563
-0,00808841775797156
-0,00909922375080377
-0,0103522587967118
-0,0118196613270252
-0,0134677639499626
-0,0152582325571835
-0,0171492730291211
-0,0190968537546573
-0,0210559046333372
-0,0229814680716673
-0,0248297925642374
-0,0265593725698171
-0,0281319475157214
-0,0295134763161638
-0,0306751008502368
-0,0315941023226115
-0,0322548391211968
-0,03264963535957
-0,0327795681479109
-0,0326550816895215
-0,032296340672037
-0,0317332270961453
-0,0310048861485567
-0,0301587396282829
-0,029248910327404
-0,0283340369340229
-0,0274745044212088
-0,0267291662565233
-0,026151687845377
-0,0257866905042427
-0,0256659168235177
-0,0258046667150625
-0,026198764699764
-0,02682231032037
-0,0276264337904013
-0,0285392288231913
-0,0294669666155776
-0,0302966136106515
-0,0308995868187605
-0,0311365910973846
-0,0308633002652586
-0,0299365754786154
-0,0282208662593376
-0,0255944167985592
-0,0219549055291912
-0,0172241799841088
-0,0113518096796974
-0,00431726282450243
0,00386938839471188
0,0131682223786103
0,0235115651925862
0,0348072171421996
0,0469425185775471
0,0597889126859386
0,0732066410460036
0,0870492178117176
0,101167369777665
0,115412198591604
0,129637411783354
0,143700572746462
0,157463426687788
0,170791459711044
0,183552931956482
0,195617684764382
0,206856050044878
0,217138184061562
0,226334107502557
0,234314662079481
0,240953497068754
0,246130085835412
0,249733652897265
0,251667777814117
0,251855344290804
0,250243431363451
0,246807706262886
0,241555880521977
0,234529833682314
0,225806090523358
0,215494452482176
0,203734723150255
0,190691620268308
0,176548119846096
0,161497618800141
0,145735418415222
0,129450111313938
0,112815491485896
0,0959835957079524
0,079079424653069
0,0621977863745127
0,0454025606565375
0,0287285101635593
0,0121855760614351
-0,00423459405393957
-0,0205503150384854
-0,0367803093962354
-0,0529336202778707
-0,0689997482868333
-0,0849397795348482
-0,100679229018733
-0,116103227478812
-0,131054537541074
-0,145334705575625
-0,158708451417139
-0,170911182735859
-0,181659309031644
-0,190662836289825
-0,197639560365936
-0,202330056090491
-0,204512587985049
-0,204017052083399
-0,20073709775238
-0,194639671087001
-0,185771361465226
-0,17426111129082
-0,160319054566336
-0,144231469887652
-0,126352054124837
-0,107089930977348
-0,0868949912216866
-0,0662413079999976
-0,0456094724698592
-0,0254687469588327
-0,00625993199629974
0,0116202089377832
0,0278322234015823
0,0421043403433496
0,0542395071926695
0,0641188572957322
0,0717015728352135
0,0770213057602823
0,0801795005488232
0,0813361171759868
0,0806983717809175
0,0785081900063492
0,0750291005116125
0,0705332834313202
0,0652894332674094
0,0595520032939885
0,0535522767514166
0,0474915683255735
0,041536708053648
0,0358178094824713
0,0304281846849912
0,0254261494131735
0,0208383691738183
0,0166643360113112
0,0128815383913853
0,00945089235246399
0,00632203815689713
0,00343816808630959
0,000740131251627268
-0,00183034722022089
-0,00432840040539679
-0,00680468442634227
-0,00930487165490388
-0,0118698071064618
-0,0145361203424634
-0,0173370650414218
-0,0203033606683839
-0,0234638336707842
-0,0268456961195334
-0,0304743532790166
-0,0343726930558946
-0,0385598741178471
-0,0430496902926609
-0,0478486417371585
-0,0529538842349845
-0,0583512538146078
-0,0640135729082378
-0,0698994359848401
-0,0759526477549973
-0,0821024475604033
-0,0882646023268175
-0,0943433911167936
-0,100234441042388
-0,105828311487129
-0,11101466562799
-0,115686819224008
-0,119746420099767
-0,123107990492932
-0,125703060313172
-0,127483633163703
-0,128424758349132
-0,128526029508057
-0,127811891325653
-0,126330706372405
-0,124152610041895
-0,121366257858094
-0,118074640885956
-0,11439020653931
-0,110429569154272
-0,106308123565597
-0,102134883027525
-0,0980078490417627
-0,0940101854420894
-0,0902074145216164
-0,0866457826845825
-0,0833518620017934
-0,0803333680508897
-0,0775810899886994
-0,0750717524160325
-0,0727715662370259
-0,0706401823551633
-0,0686347411819747
-0,066713714269174
-0,0648402616023515
-0,0629848769184058
-0,0611271596506033
-0,0592566300908024
-0,0573725873426014
-0,0554830904441278
-0,0536032146478885
-0,0517527910815361
-0,0499538740814956
-0,0482281934516232
-0,046594837945358
-0,0450683828054476
-0,0436576217375484
-0,0423649975102444
-0,0411867520208716
-0,0401137433229195
-0,0391328109223131
-0,0382285179958971
-0,0373850650823558
-0,0365881573873399
-0,0358266180975318
-0,035093571705956
-0,0343870708631439
-0,0337101024519475
-0,0330699769223174
-0,0324771723213558
-0,0319437639101948
-0,0314816156220761
-0,0311005361766255
-0,0308066076740865
-0,0306008774074923
-0,030478566216012
-0,0304288928095529
-0,0304355487058221
-0,0304777894542625
-0,0305320418490013
-0,0305738707516391
-0,0305801088424948
-0,030530932398183
-0,0304116682836933
-0,0302141417142061
-0,0299374186345934
-0,0295878563975357
-0,0291784457763161
-0,0287274992088938
-0,0282568072254872
-0,0277894403983364
-0,0273474121611363
-0,0269494344819485
-0,0266089918035247
-0,0263329293537265
-0,0261207026493802
-0,0259643705304019
-0,025849340683291
-0,0257558015499879
-0,0256607051802849
-0,0255401088427666
-0,0253716447113449
-0,0251368705789327
-0,024823262059381
-0,0244256375645323
-0,0239468586663814
-0,0233977155179343
-0,0227959835214469
-0,0221647162542699
-0,0215299134026806
-0,0209177642471695
-0,0203517113223472
-0,0198496011536649
-0,0194211873569733
-0,0190662259817803
-0,0187733560227667
-0,0185198936621441
-0,0182725927038773
-0,0179893424333876
-0,0176216947884375
-0,0171180419902747
-0,0164272095708472
-0,0155021926107299
-0,0143037478796174
-0,0128035624601707
-0,0109867494435005
-0,0088534707527175
-0,00641955191035933
-0,00371602836547101
-0,000787641914012464
0,00230961725552065
0,00551175802617231
0,0087506037543398
0,011957913853964
0,0150695286890058
0,0180292539574835
0,0207922196205825
0,0233274854024177
0,0256197170627029
0,0276698212153929
0,0294944969922436
0,0311247355675012
0,0326033687093869
0,0339818306211051
0,0353163494216952
0,0366638224851265
0,0380776511891052
0,0396038141083807
0,0412774430780465
0,0431201346714922
0,0451381823347192
0,0473218544980474
0,0496457750472548
0,0520703888303491
0,054544421060383
0,0570081703810973
0,0593974156931665
0,0616476708950652
0,0636984930399843
0,0654975406286503
0,0670040911816817
0,0681917607739334
0,0690502212798286
0,0695857805681107
0,0698207723359756
0,0697917900810731
0,0695468875067005
0,0691419487345309
0,0686364995412296
0,0680892796314018
0,0675539211303986
0,0670750771210152
0,0666853152711813
0,0664030367013805
0,0662316027395107
0,0661597576348246
0,0661633308397151
0,0662080964197975
0,0662535682885053
0,0662574267546738
0,066180211793026
0,0659898872404797
0,0656658812575106
0,065202242684452
0,0646096183457607
0,0639158481484169
0,0631650858182643
0,0624154743026911
0,0617355261205201
0,0611994699126593
0,0608819154608709
0,0608522523713838
0,0611692266419918
0,0618761314853693
0,0629970042813942
0,0645341438060523
0,0664671572929977
0,0687536242130676
0,0713313333334684
0,0741219228079916
0,0770356406482244
0,0799768545958102
0,0828498836864362
0,085564703410483
0,0880420938339907
0,0902178534875053
0,0920457862077066
0,0934992756660089
0,0945713832683907
0,0952735286134313
0,0956329268093669
0,0956890536442548
0,0954894796988419
0,0950854523529884
0,094527607709854
0,0938621634314678
0,0931278821737433
0,092354010289915
0,0915592963580067
0,0907520887209906
0,0899314106850999
0,0890888256803211
0,0882108403009352
0,0872815561634363
0,0862852745701507
0,0852087806905723
0,0840430830922983
0,0827844541717389
0,0814346996631567
0,0800006721581688
0,0784931254682804
0,0769250754552278
0,0753098819054528
0,0736592905951929
0,0719816729478833
0,0702806734370326
0,0685544255842702
0,0667954316962654
0,0649911266443333
0,0631250700963824
0,0611786427199327
0,0591330671756629
0,0569715398014017
0,054681247175583
0,0522550541760691
0,0496926851088421
0,0470012729945406
0,0441952183073962
0,0412953702267868
0,038327613167631
0,0353210016875739
0,0323056316101505
0,0293104598477126
0,0263612876416218
0,0234791018437429
0,0206789288751263
0,0179693006338601
0,0153523669504003
0,0128246221772981
0,010378151259613
0,00800224964688099
0,00568523685726233
0,00341626871732213
0,00118695943102197
-0,00100734944830653
-0,00316679359387042
-0,00528673043374853
-0,00735803056090094
-0,00936786466880126
-0,0113008839370442
-0,0131406540242408
-0,0148711818823896
-0,016478372367984
-0,01795126783941
-0,0192829562297586
-0,0204710772993402
-0,0215179073937778
-0,0224300538856372
-0,0232178354030176
-0,0238944575474344
-0,0244751120581902
-0,0249761281298692
-0,0254142878065785
-0,0258063851834492
-0,0261690656015223
-0,0265189316680423
-0,0268728541675944
-0,0272483842560414
-0,0276641346142334
-0,0281399859608341
-0,0286969840251663
-0,029356820976201
-0,0301408421830798
-0,0310685795240691
-0,0321558799067647
-0,0334127645939848
-0,0348412133312914
-0,0364331095661482
-0,0381686029859497
-0,040015139022542
-0,0419273703289029
-0,0438481039595805
-0,0457103544049255
-0,0474404737247013
-0,0489622247682439
-0,0502015620234452
-0,0510917973464005
-0,0515787641667698
-0,0516255613629395
-0,0512164617650291
-0,050359611793872
-0,0490882261100638
-0,0474600888543161
-0,0455553025312817
-0,0434723659013259
-0,0413228010984785
-0,0392246750750391
-0,0372954598368234
-0,0356447403211647
-0,0343673017562865
-0,0335371071769917
-0,033202611714192
-0,0333837584966934
-0,0340708701572326
-0,0352255013660871
-0,0367831644980682
-0,0386576958953616
-0,0407469067960731
-0,0429390714394405
-0,0451197527321024
-0,0471784570689494
-0,0490146443453788
-0,0505426927867488
-0,0516955233366457
-0,0524267145968923
-0,052711074558454
-0,0525437669248845
-0,0519382056792324
-0,0509230214872911
-0,0495384601255468
-0,0478325923664014
-0,0458576963929832
-0,0436671212823776
-0,0413128600970905
-0,0388439628864411
-0,0363058142030623
-0,033740197791997
-0,03118598341031
-0,0286802060196555
-0,0262592719945446
-0,023960023442136
-0,0218204197627406
-0,0198796514000005
-0,018177577703464
-0,0167534701826624
-0,0156441342447277
-0,0148815667088598
-0,0144903738452514
-0,0144852181116339
-0,0148685764659753
-0,0156290774863996
-0,0167406400579617
-0,018162567635105
-0,0198406660609936
-0,0217093583897378
-0,0236946766834946
-0,0257179277459653
-0,0276997654869705
-0,0295643633832982
-0,0312433700448094
-0,0326793499963975
-0,0338284582753373
-0,0346621664317495
-0,0351679419619519
-0,0353488746187408
-0,0352223324285526
-0,0348178089748348
-0,0341741842127301
-0,0333366583798964
-0,0323536295515858
-0,0312737698992289
-0,0301435162650227
-0,0290051321658674
-0,0278954275049135
-0,026845146906422
-0,025878965759183
-0,0250159722368055
-0,0242704698782505
-0,023652912920057
-0,023170787265889
-0,0228292730388991
-0,022631566980825
-0,0225787993929991
-0,0226695442609668
-0,022898985314022
-0,0232578577371268
-0,0237313285648827
-0,0242980034273193
-0,0249292502621717
-0,0255890111426842
-0,0262342331567847
-0,0268159921605243
-0,0272813148769001
-0,0275756320708786
-0,0276457257985176
-0,0274429741434242
-0,0269266536266005
-0,0260670372450461
-0,0248480274798124
-0,0232690889607097
-0,0213462928311622
-0,0191123501616116
-0,0166155892648855
-0,0139179145710681
-0,0110918654609376
-0,00821696498349076
-0,00537560444860189
-0,00264874569522086
-0,000111735478670663
0,00216948489216615
0,00414152545606978
0,0057658530254597
0,00702012764820685
0,00789851739778432
0,00841101619386896
0,00858186184909718
0,00844721322100292
0,00805229149957357
0,00744821810328262
0,00668878898205751
0,00582741275095594
0,00491441011803005
0,0039948280780399
0,00310686891299327
0,00228097634559591
0,00153956448969179
0,000897324390106513
0,000362001992311371
-6,44867646586473E-05
-0,000384751795653089
-0,000604582913948322
-0,000731695108326812
-0,000774672747862891
-0,000742187123475928
-0,000642524179720533
-0,000483421320132229
-0,000272177410649026
-1,5971669606252E-05
0,000277692650731844
0,000600513640134605
0,000942978361699793
0,00129409549853874
0,0016413370406688
0,00197082817022681
0,0022677961327827
0,00251725981384868
0,00270491471446327
0,00281814546862283
0,00284708189946652
0,00278560615259366
0,00263221825126586
0,00239067532838918
0,00207033497788603
0,00168615423629051
0,00125832082262091
0,000811520356319597
0,000373870176031392
-2,44249756163908E-05
-0,000352619559454852
-0,000581085242318655
-0,000682980833410521
-0,000635833081424647
-0,00042293255074177
-3,44604186784418E-05
0,00053172097628144
0,00126965998942238
0,0021653125887651
0,00319694268772993
0,00433590077199977
0,00554773458574258
0,0067935681813683
0,00803167280695432
0,00921914552511345
0,0103136093461241
0,0112748518531542
0,0120663272685229
0,0126564588261263
0,0130196931219692
0,0131372746129013
0,0129977253901727
0,0125970315963244
0,0119385523348284
0,0110326788422648
0,00989628048696603
0,00855197958128155
0,00702729908468502
0,00535372633710237
0,00356573253738431
0,00169978245250855
-0,000206637415187902
-0,00211595049015966
-0,00399136597267016
-0,00579768830121412
-0,00750205334597528
-0,00907458660595758
-0,0104889793673128
-0,0117229782453464
-0,0127587822103578
-0,0135833396031566
-0,0141885363475364
-0,0145712660976867
-0,0147333738432284
-0,014681466821173
-0,0144265905296674
-0,0139837730787788
-0,013371447707039
-0,0126107705214826
-0,0117248577266434
-0,0107379730668381
-0,00967470119806295
-0,00855914558200448
-0,00741418977969018
-0,00626085843729771
-0,00511780879642068
-0,0040009754916331
-0,00292338125146326
-0,0018951146673245
-0,000923464373465403
-1,31878196492519E-05
0,000833116663685097
0,00161457269193299
0,00233156530702007
0,00298529871387446
0,00357740988274589
0,00410966808925582
0,00458377999726111
0,00500130746185118
0,00536369200699371
0,00567236723661697
0,00592892958988577
0,00613533003786067
0,00629404549263567
0,00640818943770366
0,00648152674168219
0,00651836746487263
0,00652332791376443
0,00650096304918009
0,00645529109216168
0,00638924711556072
0,00630411584927959
0,00619900331590229
0,00607041100905089
0,00591197434638021
0,00571441884125375
0,00546577320987666
0,00515185943258076
0,00475705711367586
0,00426531523148893
0,00366136068978476
0,00293203215187211
0,00206765149094813
0,00106333548310172
-7,98517707847095E-05
-0,00135399930432211
-0,00274378254192429
-0,00422628874599376
-0,00577126829753386
-0,00734181658068813
-0,00889546165224798
-0,010385605064501
-0,0117632395081413
-0,012978849300843
-0,0139843895495076
-0,0147352377270808
-0,015192017331967
-0,0153222063749773
-0,0151014621487972
-0,0145146160467511
-0,0135563158083419
-0,0122313151319396
-0,010554429988764
-0,00855019552876611
-0,00625226614850837
-0,00370260381843565
-0,000950496625921189
0,0019485580969846
0,00493408194996885
0,00794194162882752
0,0109057688701332
0,0137584753884957
0,0164338642047878
0,0188683328977065
0,0210026524224909
0,0227837881837977
0,0241667098473512
0,0251161154558556
0,0256079767556566
0,0256307993557399
0,0251864862751406
0,024290698841018
0,0229726260729473
0,0212741027386008
0,0192480559863577
0,0169563083212347
0,0144668169928842
0,0118504820424301
0,00917770224307411
0,00651489493181584
0,00392121774452725
0,00144573404364998
-0,000874752659143576
-0,00301700699043019
-0,00497168028395737
-0,00674257815030882
-0,0083448969680225
-0,00980253393461917
-0,0111446562950085
-0,0124017852452177
-0,0136017020167664
-0,0147655122770565
-0,0159042065309318
-0,0170160272512096
-0,0180848990454649
-0,0190800998232829
-0,0199572544788769
-0,0206606256817133
-0,0211265678223157
-0,0212879092628978
-0,0210789437130691
-0,0204406514923452
-0,0193257414701817
-0,0177031079074932
-0,0155613337528732
-0,0129109407163262
-0,00978518140683882
-0,00623928235846656
-0,00234816951619162
0,0017971706101593
0,00609443074708796
0,010435471043882
0,0147121426421639
0,0188220073282892
0,0226735242589989
0,0261903209199658
0,029314243694372
0,032006987035403
0,0342502203574296
0,0360442580169503
0,037405439199376
0,0383624906157412
0,0389522264176362
0,0392149895856753
0,0391902529425255
0,0389127747684905
0,0384096459171204
0,037698477609854
0,0367868696341464
0,0356731773409725
0,0343484735495841
0,0327994892552823
0,0310122250268199
0,028975861511928
0,0266865683276342
0,024150818481817
0,0213878597202392
0,0184310708707678
0,0153280334698124
0,0121392674628085
0,00893570380626829
0,00579508504532376
0,00279758654685979
2,10266461415804E-05
-0,00246392356465641
-0,0045981148050374
-0,00633749518848041
-0,00765557133428912
-0,00854453662475361
-0,00901496590216226
-0,00909410355135579
-0,00882289795372711
-0,00825204821210388
-0,0074374184361289
-0,00643523242313676
-0,00529748179843688
-0,00406796148708293
-0,00277928924896952
-0,0014511758649535
-9,00974000371514E-05
0,00130960889670709
0,00276333633224175
0,00429272315997129
0,00592142790481765
0,00767057716167052
0,00955433369454344
0,0115760283444572
0,0137252542995886
0,0159762403133661
0,0182877074409939
0,0206042814961479
0,0228593922968452
0,024979453311927
0,0268889937707524
0,0285163205599386
0,0297992279649061
0,0306902551357954
0,0311610161656975
0,0312051942502218
0,0308398943440808
0,0301051796983312
0,0290617658577911
0,027786998820151
0,0263693892910307
0,0249021001217144
0,0234758784804211
0,0221719799943387
0,0210556440798769
0,0201706466034921
0,0195353802123656
0,0191407999765712
0,0189504312152803
0,0189024786656185
0,0189139139876978
0,0188862648595553
0,0187126957933262
0,0182858688539805
0,0175060097467323
0,0162885861890464
0,0145710325300987
0,0123180250243145
0,00952492040408733
0,00621910784111528
0,0024591801947833
-0,00166800762400267
-0,00605216994650201
-0,0105659512538949
-0,0150723489128188
-0,0194326593746892
-0,0235143811296532
-0,0271985232432851
-0,0303858258365828
-0,0330014931681382
-0,0349981629190679
-0,0363569765122137
-0,0370867631567634
-0,0372214927340439
-0,0368162782436454
-0,0359423074665933
-0,0346811483655337
-0,0331188990650387
-0,031340639946111
-0,0294255947131077
-0,0274433246714208
-0,0254511739585879
-0,0234930630444226
-0,0215996044298739
-0,0197893990921974
-0,0180712748752628
-0,0164471568733734
-0,0149152205401809
-0,0134729733611579
-0,0121199398452935
-0,0108596835718711
-0,00970098261010236
-0,00865807223869353
-0,00774997171428994
-0,00699900971123012
-0,00642874647231798
-0,00606155169891292
-0,00591613007519814
-0,00600528819332604
-0,00633420770500018
-0,00689943299190358
-0,00768870342962101
-0,00868166845118117
-0,00985142744520212
-0,0111667458199307
-0,0125947225533462
-0,014103631030062
-0,0156656295323746
-0,0172590432730507
-0,0188699561591142
-0,0204929143880536
-0,0221306295894213
-0,0237926684770628
-0,0254932193939467
-0,0272481237403563
-0,029071442540572
-0,0309718871249118
-0,0329494720131784
-0,0349927441972185
-0,0370769057924406
-0,0391630791679127
-0,0411988707292368
-0,0431202793937903
-0,0448548779764944
-0,0463260804658959
-0,0474582056502168
-0,0481819668201972
-0,0484399655751486
-0,048191749839136
-0,0474180139530101
-0,0461235710041338
-0,0443388103737771
-0,0421194602672057
-0,0395445972631097
-0,0367129729889723
-0,0337378518488301
-0,030740663704327
-0,0278438632082954
-0,0251634466698621
-0,0228016038358615
-0,020839974379708
-0,0193339384532767
-0,0183083011211931
-0,0177546376920235
-0,0176304582986415
-0,0178602338542419
-0,0183382102572759
-0,0189328314912034
-0,0194925020657007
-0,0198523504995854
-0,019841611799497
-0,0192912296147312
-0,0180412873846346
-0,0159479098975911
-0,0128893282721843
-0,00877086733066787
-0,00352868892262616
0,00286779791507501
0,0104148745282526
0,0190747455202807
0,0287769587457957
0,0394208621001599
0,0508789193070999
0,0630006937948224
0,0756173095719597
0,0885462084048136
0,101596040618978
0,114571549286617
0,127278331298478
0,139527381112796
0,151139341713034
0,161948401174258
0,171805781791859
0,180582772366811
0,188173254131292
0,194495668663713
0,199494374061122
0,203140335767964
0,205431102792021
0,206390030136203
0,206064725093689
0,204524718802275
0,201858394522218
0,198169239097208
0,193571521884494
0,188185543464742
0,182132631711816
0,175530092286457
0,168486341476374
0,161096459120576
0,153438396367874
0,14557005628379
0,13752743479356
0,129323966063084
0,120951161981901
0,112380572562599
0,103567026052153
0,094453038058731
0,0849742118987339
0,0750653915002222
0,0646672771045729
0,053733175757205
0,0422355355905514
0,0301719068247391
0,0175699840491428
0,00449141364671132
-0,00896590373400318
-0,0226672246505047
-0,0364422235327233
-0,0500881544103348
-0,0633748760555341
-0,0760516111033392
-0,0878552197443799
-0,0985196846276617
-0,107786429803997
-0,115415036830542
-0,121193879106667
-0,124950174168722
-0,126558955333699
-0,125950490170249
-0,123115724122391
-0,118109402340863
-0,111050619207506
-0,102120659628042
-0,0915581240919893
-0,0796514647400131
-0,0667291953148361
-0,0531481663532775
-0,039280410589426
-0,0254991548571015
-0,0121646571944423
0,000389443903322543
0,0118685905442061
0,0220279476069799
0,0306806829179222
0,0377034625193774
0,0430388862308968
0,0466947564468734
0,0487402504826714
0,0492992426906757
0,0485411856216205
0,0466700987792768
0,0439123194025377
0,0405037346558504
0,036677233755887
0,0326510901911388
0,0286189099392066
0,024741666405766
0,021142194677314
0,0179023470548762
0,0150628308837862
0,0126255714147077
0,0105582796398622
0,00880076939296082
0,00727246906084968
0,00588051775899849
0,00452782713338681
0,00312052777890041
0,00157429970504579
-0,000180797882288381
-0,00219724089845131
-0,00450878724691381
-0,00713098882929564
-0,0100632571827924
-0,0132921503703826
-0,0167954605468835
-0,0205466326440231
-0,0245190380662416
-0,0286896627674407
-0,0330418426552717
-0,037566783848982
-0,042263731261956
-0,0471387849490019
-0,0522024975908881
-0,0574665066294822
-0,0629395504639407
-0,0686232815116381
-0,0745083144331671
-0,0805709333487719
-0,0867708288235696
-0,0930501484894947
-0,0993340320295095
-0,105532671726876
-0,11154480512045
-0,117262418161033
-0,122576326710741
-0,127382220828185
-0,131586707274978
-0,135112875376533
-0,137904940809049
-0,139931588746006
-0,141187736618318
-0,141694559393091
-0,141497756635223
-0,140664179444217
-0,139277065226271
-0,137430238510415
-0,135221717622709
-0,132747213376678
-0,130094013298739
-0,127335712790857
-0,124528185764385
-0,121707087376848
-0,118887058782343
-0,116062668286904
-0,113210985979504
-0,110295560856586
-0,107271460902554
-0,104090956098118
-0,100709378129484
-0,0970906820534367
-0,0932122646316554
-0,0890686587230639
-0,0846738173981295
-0,0800618173818288
-0,0752859394207671
-0,0704162127288413
-0,0655356312971037
-0,0607353519313058
-0,0561092593991622
-0,0517483273000534
-0,0477352112089647
-0,044139483210643
-0,0410138569793583
-0,0383916655417266
-0,036285747430964
-0,0346887802270997
-0,0335749833396454
-0,0329030040522947
-0,0326197111262643
-0,0326645557847732
-0,0329741255693069
-0,0334865146291114
-0,0341451639357392
-0,0349018834540705
-0,0357188497915992
-0,0365694697483983
-0,0374381037502491
-0,0383187441893808
-0,0392128334141449
-0,0401264768403322
-0,041067352551313
-0,0420416362558847
-0,0430512486182
-0,0440916924449093
-0,0451506841486574
-0,0462077035064098
-0,0472344956639583
-0,0481964680396678
-0,0490548406632107
-0,0497693391777375
-0,0503011713828847
-0,0506160049302209
-0,05068666733478
-0,0504953190551691
-0,050034902825723
-0,0493097423967287
-0,0483352444953771
-0,0471367413732313
-0,0457475898193676
-0,0442067086207689
-0,0425557840674369
-0,0408363979839136
-0,0390873329155489
-0,0373422849036898
-0,0356281684775625
-0,0339641358802842
-0,0323613594965048
-0,0308235502913667
-0,0293481133501006
-0,0279277813827623
-0,026552524165536
-0,0252115104339745
-0,0238949006472512
-0,0225952739086258
-0,0213085374476494
-0,020034227726048
-0,0187751821355403
-0,0175366321983239
-0,0163248357240237
-0,0151454196052379
-0,0140016411390747
-0,0128927900238386
-0,0118129437625203
-0,0107502567452614
-0,00968691075814474
-0,00859978710544594
-0,00746184455565562
-0,00624411048696426
-0,0049181226923507
-0,00345860351957419
-0,00184611232032176
-6,94106346497327E-05
0,00187271107609785
0,00397035674216798
0,0062023480294286
0,00853701946403192
0,0109339693102227
0,0133466609930271
0,0157256876779264
0,0180224453335861
0,020192913814275
0,0222012258904977
0,024022713029828
0,025646153757387
0,0270750126711216
0,028327540345354
0,0294356992612767
0,0304429801508456
0,0314012679064196
0,0323669980181143
0,0333969060663311
0,0345437086212153
0,0358520608469199
0,0373551136142081
0,0390719430860445
0,0410060530569015
0,0431450613109054
0,0454615837800964
0,0479152328619381
0,0504555572657457
0,0530256776968716
0,0555663214902472
0,0580199338620972
0,0603345453010234
0,062467102888703
0,0643860248614958
0,0660728074256815
0,0675225942313401
0,0687437047348006
0,0697562005734402
0,0705896422283791
0,0712802459826566
0,0718676893938203
0,0723918299524665
0,0728895960099825
0,0733922830321943
0,0739234449854957
0,0744975146725943
0,0751192233490208
0,0757838245085485
0,07647806463688
0,0771817896707991
0,0778700335344138
0,0785154069226784
0,0790905916113267
0,0795707478485814
0,0799356585490736
0,0801714618302391
0,0802718600387988
0,0802387355539204
0,0800821480151548
0,0798197310519404
0,0794755463313426
0,0790784865287724
0,0786603450245939
0,0782536876771896
0,0778896704845177
0,0775959463798026
0,0773947953523057
0,0773015954289075
0,0773237289952235
0,0774599908963794
0,0777005333322664
0,0780273494735542
0,0784152647657324
0,0788333738888557
0,0792468340654451
0,0796189035282696
0,0799130988906964
0,0800953380251677
0,0801359365111625
0,0800113359170761
0,0797054606685804
0,0792106259602499
0,0785279503998389
0,0776672616430775
0,0766465185966135
0,0754908070737431
0,0742309943558085
0,0729021495088714
0,071541848629352
0,0701884862851151
0,0688797060169268
0,067651044570803
0,0665348582029402
0,0655595674171325
0,0647492219796841
0,0641233544635573
0,0636970613723293
0,063481229210057
0,0634828111423639
0,0637050596266548
0,0641476319034972
0,0648065076289834
0,0656736890714898
0,0667366910547995
0,0679778662921668
0,0693736476505562
0,0708938179768819
0,0725009366805232
0,0741500574746894
0,0757888619607108
0,0773583089967898
0,0787938614793821
0,0800273032268013
0,0809891032865985
0,0816112282924272
0,0818302509883488
0,081590560145858
0,080847448588914
0,0795698455590822
0,0777424692766134
0,0753672055699433
0,0724635672177863
0,0690681527170305
0,0652330975281138
0,0610235892847996
0,0565145942079664
0,0517870082596231
0,0469234972839023
0,0420043205815771
0,0371034388480867
0,0322851889877278
0,0276017660147997
0,0230916892135307
0,01877935101045
0,014675659127452
0,0107796929808374
0,00708121165214493
0,00356378036086467
0,000208231398213446
-0,00300385150005035
-0,00608693687169762
-0,00904892268384751
-0,0118893215329667
-0,0145984174563876
-0,0171574726508268
-0,0195399701893525
-0,0217137876256301
-0,0236441140245777
-0,0252968565517408
-0,0266422379965769
-0,0276582673391452
-0,0283337733142544
-0,0286707251862131
-0,0286856226431718
-0,0284098128861193
-0,0278886811084016
-0,0271797531391436
-0,026349838236455
-0,0254714183980928
-0,0246185516249246
-0,0238625953846868
-0,0232680700610291
-0,0228889696002244
-0,0227657892433058
-0,0229234815736876
-0,0233704772732716
-0,0240988223762874
-0,0250853965533857
-0,0262940942483984
-0,0276787789996145
-0,0291867666049014
-0,0307625590265698
-0,0323515403228858
-0,03390335874385
-0,0353747537728674
-0,0367316399391286
-0,0379503258287156
-0,0390178210777073
-0,0399312599412941
-0,0406965410702664
-0,0413263437184827
-0,0418377261051831
-0,0422495387761619
-0,0425798928547968
-0,042843910041659
-0,0430519497150165
-0,0432084615906127
-0,0433115543205262
-0,0433533061745215
-0,0433207789033378
-0,0431976353281012
-0,0429662099175658
-0,0426098435450832
-0,0421152715458128
-0,0414748495972039
-0,0406884148818849
-0,039764609170463
-0,038721533348341
-0,0375866559784354
-0,0363959574956947
-0,0351923519619906
-0,0340234853323659
-0,0329390586048583
-0,0319878623677929
-0,0312147333704958
-0,0306576521197285
-0,0303451926589178
-0,0302945122923885
-0,0305100319082141
-0,0309829095076794
-0,0316913541299337
-0,0326017686013588
-0,033670651684508
-0,0348471373744237
-0,0360760050145516
-0,0373009616356189
-0,0384679796427557
-0,039528469848248
-0,0404420819452628
-0,0411789508358302
-0,041721245762528
-0,0420639271142546
-0,0422146696306071
-0,0421929666889851
-0,0420284845331532
-0,0417587839765947
-0,0414265670501965
-0,0410766346909991
-0,0407527571781073
-0,04049466084583
-0,0403353228661987
-0,0402987417495043
-0,040398316648947
-0,0406359262216047
-0,0410017507857635
-0,0414748331346204
-0,0420243268927345
-0,0426113397509078
-0,0431912448381412
-0,0437163088141238
-0,0441384711909696
-0,0444121063420558
-0,0444966072852225
-0,0443586475958038
-0,0439740030826611
-0,043328846079929
-0,0424204600330968
-0,0412573580618464
-0,0398588240181607
-0,0382539261166154
-0,0364800797452609
-0,0345812562735274
-0,0326059477733006
-0,0306050032893981
-0,0286294508694686
-0,026728411665454
-0,024947199092181
-0,0233256785736365
-0,0218969432991138
-0,0206863401578375
-0,019710859087906
-0,0189788797704211
-0,018490253006604
-0,0182366810314645
-0,0182023519123145
-0,0183647781898765
-0,0186957888506681
-0,0191626260804378
-0,019729103309657
-0,0203567879108177
-0,0210061795510151
-0,0216378626346355
-0,0222136175846476
-0,0226974801722121
-0,0230567402291733
-0,023262870687427
-0,023292375142802
-0,0231275375152489
-0,022757051664686
-0,0221765030276647
-0,0213886696177373
-0,0204036072466701
-0,0192384846307829
-0,0179171389598413
-0,016469331981494
-0,0149297006884681
-0,0133364147835051
-0,0117295742106823
-0,0101494026741542
-0,00863431533562233
-0,00721895866369461
-0,00593233552740029
-0,00479613705260564
-0,00382340283683207
-0,00301762173988276
-0,00237236627566721
-0,00187152508103279
-0,00149016138718669
-0,00119598306060058
-0,000951364524139721
-0,00071581616904192
-0,000448756431182176
-0,000112409203628168
0,000325371999317144
0,00088855911545897
0,00159088173239619
0,00243441023792358
0,00340892458295754
0,00449215122875791
0,00565088924818184
0,00684297986837515
0,00802000710219482
0,00913055593570949
0,0101238040976442
0,0109531883859911
0,0115798704771441
0,01197573230444
0,0121256579819253
0,0120289066073881
0,0116994450568002
0,0111651874479974
0,0104661724025559
0,00965179386805597
0,0087772790972645
0,00789967178267875
0,00707362356944584
0,006347318926279
0,00575885420381448
0,00533336134354331
0,00508111202152557
0,00499676305185744
0,00505981447109807
0,00523625509593402
0,00548127445446496
0,00574283289540298
0,00596581081863502
0,00609640950221303
0,00608645423459982
0,00589725747265059
0,00550273512886533
0,00489152999973673
0,00406797770092729
0,00305184539145491
0,00187687397496747
0,000588251794122667
-0,000760766215483511
-0,00211281264774292
-0,00341061074530477
-0,00460108696263463
-0,00563906688479609
-0,00649026908599018
-0,00713337546731147
-0,00756103793497143
-0,007779772591372
-0,00780878579095746
-0,007677863302835
-0,00742452702125793
-0,00709071713650785
-0,0067192873172553
-0,00635060439910023
-0,00601952282579833
-0,00575296041985717
-0,00556824068074492
-0,00547229389115347
-0,00546173185652673
-0,00552373627857931
-0,00563763520313576
-0,00577699121140656
-0,00591199294065554
-0,00601193011919083
-0,00604754152529633
-0,00599305313159232
-0,00582776648714273
-0,00553711017291174
-0,00511312427803362
-0,00455440346620608
-0,00386557297217267
-0,00305640935247784
-0,00214074095127307
-0,00113527034688943
-5,84527331421952E-05
0,00107045794930899
0,00223211614353437
0,00340750549086551
0,00457807514126274
0,00572563210790054
0,00683206214886102
0,00787897350299823
0,00884736747626873
0,00971743663679018
0,01046857590871
0,0110796661017862
0,0115296563794762
0,0117984355337159
0,0118679456997741
0,0117234601606758
0,0113549225067711
0,0107582301113762
0,00993634206701195
0,00890010059520436
0,00766867451500826
0,00626956159163337
0,00473812063096941
0,00311664069457035
0,00145299027713569
-0,000201079548321298
-0,00179187989427702
-0,00326586345342613
-0,00457172000796183
-0,00566237413906312
-0,0064967845999371
-0,00704146507864339
-0,00727167075107443
-0,00717222132102656
-0,00673795641261023
-0,00597384077631203
-0,00489475293823611
-0,00352500058134462
-0,00189760887328467
-5,34247906919337E-05
0,00195992737081814
0,00408921471419593
0,00627687517859279
0,00846240347331713
0,0105838447794349
0,0125793977465276
0,0143891226234059
0,0159567388814041
0,0172314804371643
0,0181699573665562
0,018737953216917
0,0189120694088746
0,0186811155170842
0,0180471388896096
0,0170259909350682
0,0156473414611498
0,0139540766370276
0,0120010493385627
0,0098531906681056
0,00758303528261153
0,00526775720778855
0,00298585317484516
0,000813643430033237
-0,00117821783461115
-0,00292802124573715
-0,00438587450039848
-0,00551599249985644
-0,00629826329523465
-0,00672899237232717
-0,00682078007644997
-0,00660154285311164
-0,00611274407115809
-0,00540695016497116
-0,00454486885152534
-0,00359205519611584
-0,00261548636598534
-0,00168020629422962
-0,000846227709894239
-0,00016585278917916
0,000318462263721308
0,000575615706851459
0,000586703767593067
0,000345204972219909
-0,000143449470732794
-0,000862841718678614
-0,00178696895014709
-0,00288196632714344
-0,0041080331936053
-0,0054214493572227
-0,00677658018427752
-0,00812778590746279
-0,00943116964082931
-0,0106461178559198
-0,0117366045824881
-0,0126722449781145
-0,0134290944194016
-0,013990195841249
-0,0143458812132421
-0,0144938337984552
-0,0144389174672155
-0,0141927791656322
-0,0137732318604908
-0,0132034287237981
-0,0125108453610797
-0,0117260953510447
-0,0108816145621654
-0,0100102605226472
-0,00914388313621097
-0,00831193076953939
-0,00754015981145021
-0,00684951517140777
-0,00625524326941073
-0,00576628788585058
-0,00538500340401772
-0,00510720067924964
-0,00492251963019235
-0,00481510155899712
-0,00476451511477575
-0,00474687447166166
-0,0047360781021874
-0,00470509231951337
-0,00462720576079446
-0,00447718873916962
-0,0042323038602774
-0,00387312998157043
-0,00338417869239211
-0,00275429917513165
-0,00197688187286714
-0,00104988251731796
2,43050633410064E-05
0,00123909656246967
0,00258405619533698
0,00404530302035842
0,0056059674622208
0,00724668833638236
0,0089461471087482
0,0106816403330345
0,0124296923336798
0,0141667079251204
0,015869659501967
0,0175167949845245
0,0190883440716558
0,0205671915217165
0,0219394793155092
0,0231950959505179
0,0243280118317744
0,0253364252884731
0,026222694078817
0,0269930416345864
0,0276570444473728
0,0282269251899349
0,0287166934483423
0,0291411903389076
0,0295151030979929
0,0298520196893629
0,0301635909368845
0,0304588587477092
0,0307437944314174
0,0310210724071131
0,0312900836444503
0,0315471722106612
0,0317860595024187
0,0319984060964721
0,0321744521445165
0,0323036747166152
0,0323754045600981
0,0323793547386018
0,0323060282324243
0,0321469889824685
0,0318949989414059
0,0315440402939547
0,0310892552157197
0,0305268438616123
0,029853963856756
0,029068671260465
0,0281699343401853
0,0271577387459892
0,0260332874852683
0,0247992834215688
0,0234602678213321
0,0220229775107269
0,0204966767991958
0,0188934192234735
0,0172281984357653
0,0155189566203292
0,0137864315131408
0,0120538378291718
0,010346393876255
0,00869071756695679
0,00711412638018862
0,00564388195568155
0,00430642137789419
0,00312661389367553
0,00212707449893561
0,00132755571205962
0,000744427487428913
0,000390244287367403
0,000273389447936131
0,000397781453073319
0,000762625415662881
0,001362196200178
0,00218564682026205
0,00321684601559427
0,00443426077496201
0,00581091123993646
0,00731443501322837
0,00890730367593428
0,010547234917395
0,0121878383007602
0,01377952118214
0,0152706642781667
0,0166090551093576
0,0177435438942977
0,018625862677266
0,0192125269282353
0,0194667218796011
0,0193600653988805
0,0188741366638072
0,0180016659874693
0,0167472957446675
0,0151278445822745
0,0131720353517571
0,0109196793192601
0,00842034267064493
0,00573155350201181
0,00291663588512713
4,22800632294621E-05
-0,00282402721529748
-0,00561658171249477
-0,00827392170760853
-0,0107410509264547
-0,0129713236425043
-0,0149279138939361
-0,0165848169239308
-0,0179273585087192
-0,0189522148031921
-0,0196669699622309
-0,020089259688289
-0,0202455650813628
-0,020169732255461
-0,0199012991352543
-0,0194837120263836
-0,0189625116597763
-0,0183835622790872
-0,0177913889072592
-0,0172276780630475
-0,0167299866482706
-0,0163306930670254
-0,0160562142237209
-0,0159265020542999
-0,0159548237008001
-0,0161478202457763
-0,0165058300005602
-0,0170234535976809
-0,0176903296102828
-0,0184920812715625
-0,0194113873741413
-0,020429124064051
-0,0215255195082045
-0,0226812609137121
-0,0238784936509212
-0,0251016557385143
-0,0263380979618759
-0,027578450454777
-0,0288167104400575
-0,030050042439931
-0,0312783008044557
-0,0325033037476484
-0,0337279069350057
-0,0349549416150395
-0,0361860959128635
-0,0374208268995614
-0,0386553943284029
-0,039882103756182
-0,0410888368257921
-0,0422589299725263
-0,043371440455304
-0,0444018116600169
-0,0453229198020456
-0,0461064535797135
-0,0467245493493842
-0,0471515794217803
-0,0473659724125219
-0,0473519341751636
-0,0471009371295435
-0,0466128555108021
-0,0458966441079281
-0,0449704874657267
-0,0438613834416282
-0,0426041668065026
-0,041240022022581
-0,0398145758064123
-0,0383756959188748
-0,0369711494000259
-0,035646288353528
-0,03444193245475
-0,033392603817862
-0,0325252421898255
-0,0318584884775607
-0,031402575408494
-0,0311598097728081
-0,0311255760024037
-0,0312897408947869
-0,0316382990154629
-0,0321550719717508
-0,0328232655033584
-0,0336266978718091
-0,0345505413407308
-0,035581463793345
-0,0367071162150143
-0,0379149788684436
-0,0391906484727719
-0,0405157140014762
-0,0418654233679418
-0,0432063815247513
-0,044494537933167
-0,0456737152982197
-0,046674901401983
-0,0474164735153212
-0,0478054541291017
-0,0477398134046328
-0,0471117449651854
-0,0458117553646788
-0,0437333317299625
-0,0407778938870588
-0,0368597025285792
-0,031910387405281
-0,025882780439913
-0,0187537867716681
-0,0105260981916232
-0,00122864215087059
0,00908424226898995
0,0203348110930879
0,0324249238497449
0,0452397983254605
0,0586522054179831
0,072526774814499
0,0867240892502881
0,101104281432384
0,115529909840391
0,129867971565196
0,14399100425013
0,157777325994822
0,171110552397421
0,183878604955967
0,195972477425214
0,207285051190494
0,217710244652405
0,227142745322291
0,235478510006036
0,242616133938906
0,248459091928468
0,252918752783815
0,255917972318477
0,257394989446492
0,257307292448343
0,255635094487757
0,252384062390732
0,247586981136046
0,241304105964927
0,23362204925516
0,224651162650679
0,214521497050711
0,203377543666156
0,191372068148913
0,178659437330931
0,165388896573332
0,151698279607112
0,137708619290136
0,123520077148813
0,109209525085359
0,0948300001096984
0,0804121204856234
0,0659674089579433
0,0514933262485946
0,0369796863151947
0,0224160137104409
0,00779932106646984
-0,00685826254288034
-0,0215225900836917
-0,036131868299025
-0,0505927797373252
-0,064778729034763
-0,0785304572147044
-0,0916591188680124
-0,10395175904734
-0,115178969733785
-0,125104359874533
-0,133495347586133
-0,140134686194428
-0,144832073596019
-0,147435171043273
-0,147839374611702
-0,145995739536165
-0,141916551150017
-0,13567816096348
-0,12742085523646
-0,117345687512508
-0,105708376362857
-0,0928105349930782
-0,078988650583843
-0,0646013592531324
-0,0500156596510361
-0,0355927685638537
-0,0216743418233083
-0,00856976202348502
0,00345486768294177
0,0141854833661191
0,0234661629408829
0,0312023132554409
0,0373608490436923
0,0419674401246395
0,0451010650824474
0,0468862544802729
0,0474835257464249
0,0470785981974767
0,0458710254463665
0,0440628913771712
0,0418481853315856
0,0394034051231571
0,0368798383392952
0,0343978504535866
0,0320433713252887
0,0298666292626717
0,027883043619986
0,0260760618882469
0,0244016232080234
0,0227938531257489
0,0211715480366472
0,0194449934971971
0,0175226774475724
0,0153175041373274
0,0127521820722345
0,00976354311077467
0,00630564261524413
0,00235158480978193
-0,00210589383832536
-0,00705497341059565
-0,0124662610413406
-0,0182950512950971
-0,0244841035805393
-0,0309667024554381
-0,0376697827577054
-0,0445169314238601
-0,0514311172554002
-0,058337044046719
-0,0651630668338625
-0,0718426515741882
-0,0783153922530132
-0,0845276243378225
-0,0904326889812353
-0,0959909089163675
-0,101169336097346
-0,105941325018824
-0,110285976846426
-0,114187490549221
-0,117634450284209
-0,120619074817128
-0,123136455402875
-0,125183812966151
-0,126759812447259
-0,127863979921895
-0,12849627429731
-0,128656867657056
-0,12834618463994
-0,127565240169649
-0,12631629591514
-0,124603829662463
-0,122435780031306
-0,119824994441777
-0,116790774460484
-0,113360383604214
-0,109570362309835
-0,105467486587714
-0,101109213409428
-0,0965634783941796
-0,0919077495445557
-0,0872272926427911
-0,0826126658839325
-0,0781565284401158
-0,0739499140591264
-0,0700781801913097
-0,0666168894483039
-0,0636279081328908
-0,0611560123007939
-0,0592262732871372
-0,0578424520230241
-0,0569865671662773
-0,056619720621089
-0,0566841717477641
-0,0571065560632828
-0,0578020537088616
-0,0586792354443435
-0,059645256568138
-0,0606110374671586
-0,0614960668348229
-0,0622324907909686
-0,0627682063324115
-0,0630687563664979
-0,0631179194439106
-0,0629169920186916
-0,0624828655653048
-0,0618450960570329
-0,0610422408331896
-0,0601177910043821
-0,0591160517055722
-0,0580783157714301
-0,0570396396504921
-0,0560264671948822
-0,0550552633347473
-0,0541322233877701
-0,0532540237553059
-0,052409485175742
-0,0515819391096909
-0,0507520284007185
-0,0499006402266344
-0,0490116651846651
-0,0480743010616935
-0,0470846706860214
-0,0460465951081895
-0,044971449196403
-0,0438771183549735
-0,0427861638386072
-0,0417233818054187
-0,0407130007278742
-0,0397757977425112
-0,0389264239118982
-0,038171210600595
-0,0375066861617115
-0,0369189680747669
-0,0363841166128156
-0,0358694493363573
-0,0353357290909551
-0,0347400594192901
-0,0340392572674496
-0,0331934289855387
-0,0321694554277943
-0,0309440968389136
-0,0295064573388009
-0,0278595992807286
-0,0260211649142354
-0,0240229406854059
-0,0219093814888507
-0,0197351914632051
-0,017562128187077
-0,0154552530351994
-0,0134788881058144
-0,0116925572328623
-0,0101471846986386
-0,00888180156279914
-0,00792096879643083
-0,00727307255551044
-0,00692958469348443
-0,00686531601975557
-0,00703962582572214
-0,007398493234627
-0,00787730759892785
-0,00840419901403586
-0,00890370743497779
-0,00930058010891559
-0,00952349129854212
-0,00950849391539288
-0,00920203749742546
-0,0085634184007727
-0,00756656353112057
-0,00620108597877624
-0,00447258748420274
-0,00240221709276644
-2,55265524379222E-05
0,00260930973358187
0,00544381936007683
0,008411991600465
0,0114433480044796
0,0144661894159005
0,017410878671366
0,0202130163053891
0,0228163692533014
0,0251754201721769
0,0272574179846434
0,0290438288191048
0,030531110672884
0,0317307644640982
0,0326686478363532
0,0333835747644079
0,0339252618832076
0,0343517192880047
0,0347262168956135
0,0351139847830465
0,0355788249311249
0,0361798205633446
0,0369683265248075
0,037985409406442
0,0392598798643089
0,0408070231898768
0,0426280899835813
0,0447105597988853
0,0470291404425411
0,049547418027658
0,0522200316116537
0,0549952145863161
0,0578175255043888
0,0606305853101798
0,0633796464451823
0,0660138412541433
0,0684879905874637
0,0707638955301794
0,0728110820430927
0,074607015809447
0,0761368484804937
0,0773927928732547
0,078373250225836
0,0790818251130394
0,0795263620014584
0,0797181219731658
0,079671190470162
0,0794021698050692
0,0789301673791231
0,0782770464016794
0,0774678649507637
0,0765313957855929
0,0755005970899656
0,0744128959846321
0,0733101535744187
0,0722382024595675
0,0712458835135269
0,0703835554023739
0,0697011037685001
0,0692455323764805
0,069058270616542
0,0691723754588742
0,0696098367103748
0,0703792086721917
0,0714737868409226
0,0728705244937123
0,0745298419340474
0,0763964235303447
0,0784010286402684
0,0804632673491882
0,0824952166789772
0,0844056837237537
0,0861048649621549
0,0875091108130792
0,0885454851599143
0,0891558132365967
0,0892999382916357
0,0889579562839987
0,0881312651658731
0,0868423461872443
0,0851332830397572
0,0830631138046088
0,0807041936691335
0,0781378167696948
0,0754493977451073
0,0727235435451997
0,0700393513164711
0,0674662483642186
0,0650606467998067
0,0628636219390789
0,0608997448251497
0,0591771115954274
0,0576885226723249
0,0564136799376692
0,0553221967225068
0,0543771592103463
0,0535389429254248
0,0527689767988948
0,0520331604366628
0,0513046762197615
0,0505659935331195
0,0498099329595737
0,0490397377999565
0,0482681822180711
0,0475158230269206
0,0468085694061853
0,0461747964042584
0,0456422600313509
0,0452350818488502
0,0449710588011356
0,0448595210400286
0,0448999097990485
0,0450811835133263
0,0453820889175482
0,0457722608945697
0,0462140465150184
0,0466648906468876
0,0470800774078028
0,0474155969316202
0,0476309021582544
0,0476913356521244
0,0475700400958422
0,0472492148500277
0,0467206403074977
0,0459854563607525
0,045053245407347
0,0439405283451629
0,0426688289664145
0,0412624940966962
0,0397464711919308
0,0381442409372668
0,0364760804081573
0,0347577948690775
0,033000007022434
0,0312080361968365
0,029382341981201
0,0275194526165039
0,0256132531616607
0,0236564762937072
0,0216422225760244
0,0195653385857259
0,0174235002200162
0,0152178829151257
0,0129533470186404
0,0106381205852544
0,00828301805351576
0,00590028599680305
0,00350221104896358
0,00109965561880722
-0,00129929923147818
-0,00369042912854015
-0,00607400861034327
-0,00845490886227939
-0,0108420927715792
-0,0132475106084309
-0,0156844636346525
-0,0181655632150797
-0,0207004634822854
-0,023293580999974
-0,0259420311588844
-0,0286340059165853
-0,0313477905977178
-0,0340515705161029
-0,0367041148028255
-0,0392563503221767
-0,0416537594406393
-0,0438394587791935
-0,0457577490492631
-0,0473578750304475
-0,048597704819291
-0,0494470319702686
-0,0498902242332022
-0,0499279871375804
-0,0495780763228194
-0,0488748739350065
-0,0478678347393017
-0,0466188990947094
-0,0451990545863209
-0,043684298450659
-0,0421513026450057
-0,0406731079985904
-0,0393151710024806
-0,0381320565709022
-0,0371650150769325
-0,0364406068977324
-0,0359704491741184
-0,0357520652552914
-0,0357707256623137
-0,0360020883836359
-0,036415382994276
-0,0369768429034403
-0,0376530763450488
-0,0384140804695435
-0,0392356425522977
-0,0401009340586173
-0,0410011812905166
-0,0419353833850371
-0,0429091365789055
-0,0439327049638562
-0,0450185451776911
-0,0461785397772613
-0,0474212174399608
-0,0487492359191944
-0,0501573764597542
-0,0516312490422678
-0,0531468412268988
-0,0546709658146431
-0,056162581253921
-0,0575748810560179
-0,0588579813625052
-0,0599619849923987
-0,0608401699708256
-0,0614520428822229
-0,0617660125041001
-0,0617614750757292
-0,0614301554363918
-0,0607766129300276
-0,0598178912901714
-0,0585823613137243
-0,0571078678942009
-0,0554393436953736
-0,0536260864813353
-0,0517189135870579
-0,0497674046942606
-0,0478174241829538
-0,0459090796287651
-0,0440752274657205
-0,0423405851953017
-0,0407214567987003
-0,0392260290156306
-0,0378551550222786
-0,0366035118868604
-0,0354610008344409
-0,0344142552841097
-0,0334481299707337
-0,0325470632070004
-0,0316962306050557
-0,030882438951354
-0,0300947399072259
-0,0293247715248102
-0,0285668585564782
-0,0278179183744615
-0,0270772271418404
-0,0263461008570086
-0,0256275390921109
-0,0249258674699339
-0,0242464004337581
-0,0235951310936337
-0,0229784421643115
-0,0224028231016215
-0,0218745747137482
-0,0213994842121117
-0,0209824605136737
-0,0206271304875178
-0,0203354100623681
-0,0201070775988073
-0,0199393885158743
-0,0198267778513635
-0,0197606996767071
-0,0197296481691427
-0,0197193945226064
-0,0197134574407987
-0,019693804128083
-0,0196417555415762
-0,0195390466388688
-0,019368972044337
-0,0191175323941358
-0,0187744886016873
-0,0183342317462144
-0,0177963857125089
-0,0171660776653249
-0,0164538365983836
-0,0156751103992582
-0,0148494244046587
-0,0139992361930879
-0,0131485692837728
-0,0123215296588895
-0,0115408213579603
-0,0108263793786317
-0,0101942293087473
-0,00965566409846466
-0,00921680076286947
-0,00887854604418166
-0,00863696328449037
-0,00848399641566755
-0,00840847455351524
-0,00839729534413891
-0,00843666947927489
-0,00851330430379993
-0,00861541175653649
-0,00873344443673756
-0,00886049171214317
-0,00899230284735607
-0,0091269427927715
-0,009264124787725
-0,00940429850225391
-0,00954759959450831
-0,0096927834779807
-0,00983627091637504
-0,00997142505203569
-0,0100881591494027
-0,0101729434079667
-0,0102092404467506
-0,010178356094905
-0,0100606490182587
-0,00983700366972821
-0,00949043997174294
-0,00900771324246116
-0,00838075140127372
-0,00760778443218496
-0,00669404310033199
-0,00565193831122703
-0,00450067638368228
-0,00326531500235677
-0,00197531524730269
-0,000662692193540798
0,000640094339479258
0,00190234000969314
0,00309720555352856
0,00420355751982805
0,00520738131283711
0,00610264177309756
0,00689151235738863
0,0075839476355244
0,00819663055305739
0,00875138062964025
0,00927315698153353
0,009787826384799
0,0103198881154767
0,0108903519190453
0,0115149525998066
0,012202855397048
0,0129559630416546
0,0137688819910841
0,0146295465610539
0,0155204408086251
0,016420304366661
0,0173061648755652
0,0181555101487336
0,0189484004827911
0,0196693267558197
0,0203086427385392
0,0208634383428045
0,0213377709416001
0,0217422298807696
0,0220928696662986
0,0224096046325905
0,0227142070225769
0,0230280869452127
0,0233700533434597
0,0237542580592419
0,024188510070354
0,0246731153245874
0,0252003521391365
0,0257546368867654
0,0263133745396208
0,0268484288859639
0,0273280930945536
0,0277193975178966
0,0279905619758769
0,0281133868028844
0,0280653817555783
0,027831454017944
0,0274050140582079
0,0267884077416643
0,0259926406203846
0,0250364207691033
0,0239446047857069
0,0227461826601764
0,0214719768088776
0,0201522553105637
0,0188144671243112
0,017481297117524
0,0161692118094299
0,0148876249961371
0,0136387592270519
0,0124182187803357
0,0112162272778252
0,0100194235554578
0,0088130578682007
0,00758339135565434
0,00632007844121477
0,0050183067369881
0,00368048294222454
0,00231728550749978
0,000947953322863994
-0,000400259122247988
-0,00169346041667644
-0,00289326318478989
-0,00395954709212433
-0,00485364394658501
-0,0055416994062955
-0,00599793871978947
-0,00620755820954415
-0,00616898116260958
-0,00589525587850213
-0,00541443249916201
-0,00476882983082488
-0,00401318813733011
-0,00321179226799331
-0,00243473435709682
-0,00175355962064108
-0,00123659602989173
-0,000944303608453824
-0,000924988239047672
-0,00121120668603708
-0,00181714479771634
-0,00273718258506974
-0,00394577317665034
-0,00539866429449789
-0,00703538883661265
-0,00878285374724076
-0,0105597717953982
-0,0122816163077897
-0,0138657398745992
-0,0152362879563523
-0,016328558074865
-0,0170925031938148
-0,0174951498206583
-0,0175217910121668
-0,01717591401506
-0,0164779230111497
-0,0154628106271877
-0,0141770094979802
-0,0126747107265135
-0,0110139651411775
-0,009252883873615
-0,0074462277082316
-0,0056426231780316
-0,00388257304126943
-0,00219734675996784
-0,000608751082438745
0,00087029990181783
0,00223456418340057
0,00348479937834883
0,00462586393908727
0,00566481989131033
0,00660924346870514
0,00746590793846955
0,00823994549707197
0,00893452913363655
0,00955104829022565
0,010089691466522
0,010550301215599
0,0109333373382018
0,0112407755014608
0,0114767816091427
0,0116480352282906
0,0117636242003921
0,0118344914398462
0,0118724768995791
0,0118890554708073
0,0118939182809497
0,0118935747954469
0,0118901624311091
0,0118806374766282
0,0118564868473705
0,0118040478608348
0,011705458154492
0,0115401869597729
0,0112870298805614
0,0109263897855494
0,0104426232513826
0,00982621046808662
0,00907550974200228
0,00819788627889571
0,00721005673533561
0,00613756153729184
0,00501335959856235
0,00387562679868693
0,00276492179927879
0,00172095208755315
0,000779222279754271
-3,21297456121018E-05
-0,000695008390981349
-0,0012032810076873
-0,00156373738574041
-0,00179596315925421
-0,00193109747015457
-0,00200954561337045
-0,00207781354379642
-0,00218471400850504
-0,00237725577117985
-0,00269656191009019
-0,00317416702041047
-0,00382901564872786
-0,00466542769423579
-0,00567221577413901
-0,00682304185019237
-0,00807799454844388
-0,00938626406971121
-0,0106896978126652
-0,0119269451991007
-0,0130378513393555
-0,0139677403662599
-0,0146712419827126
-0,0151153576488115
-0,0152815317456054
-0,0151665815673225
-0,0147824399135709
-0,0141547662690915
-0,0133205778089764
-0,0123251312747839
-0,0112183441469802
-0,0100510736671314
-0,00887157291546609
-0,00772241481535393
-0,0066381208471787
-0,00564365694613188
-0,00475387192734362
-0,0039738622920245
-0,00330016020035474
-0,00272256698447858
-0,00222639973032641
-0,00179488813928165
-0,00141145560715231
-0,00106164211437362
-0,00073447434156611
-0,000423155325496644
-0,000125024993560099
0,000159174030697988
0,000426612366721316
0,00067409244851303
0,000899943732604225
0,00110584576192927
0,00129833406466943
0,00148977398565503
0,00169864116140807
0,00194901924356012
0,00226930850673725
0,00269022484947296
0,00324224868826513
0,00395274912853434
0,00484305362311962
0,00592575214368961
0,00720251525107995
0,00866266767915413
0,0102826962725321
0,0120267889695063
0,0138484076397074
0,0156928008758424
0,0175002726559245
0,0192099479781393
0,0207637246375829
0,0221100766625335
0,0232073822937598
0,0240264875668367
0,0245522823384324
0,024784153105815
0,0247352781257098
0,0244308356933603
0,023905296013019
0,0231990513569784
0,022354700021285
0,0214133309735683
0,0204111548459843
0,0193767929519673
0,0183294723293424
0,0172782873343081
0,0162225852412107
0,0151534243902284
0,0140559490421025
0,0129124352234308
0,0117056951295801
0,0104224905692486
0,00905660216535814
0,00761123109746199
0,00610047138844641
0,0045496774653959
0,00299465587400324
0,00147972187777
5,47707386004147E-05
-0,00122839045996424
-0,00232013054331401
-0,00317713656923226
-0,00376623396471882
-0,00406753031631574
-0,00407658369702726
-0,00380537892463108
-0,0032819976617541
-0,00254898154023061
-0,00166050135711778
-0,000678549689409035
0,000331540194475757
0,00130588694366015
0,00218677502648773
0,00292690512476147
0,0034928343518979
0,00386732683199507
0,00405042535505591
0,00405915996135064
0,00392592027772484
0,00369562575711589
0,00342192272832291
0,00316271169881173
0,00297535691737948
0,00291194943484292
0,00301498396965232
0,00331377056032723
0,00382183833711134
0,00453550672316671
0,00543370627962708
0,00647903512643527
0,00761994527758955
0,00879387345675782
0,00993106883466167
0,0109588297919323
0,0118058453545412
0,0124063444409533
0,0127037855694187
0,0126538675699229
0,0122267032143413
0,011408066758351
0,0101996971828695
0,00861870565936165
0,00669619341093495
0,00447523080097358
0,00200837761285344
-0,000645062909184472
-0,00342186712812457
-0,00625761970006073
-0,00908920528762323
-0,0118569571994618
-0,0145063968687902
-0,0169895376501246
-0,0192657619297759
-0,0213023091823333
-0,0230744324647279
-0,0245652911050424
-0,0257656483101984
-0,026673435309393
-0,0272932305533987
-0,0276356859439405
-0,0277169148602864
-0,0275578415487491
-0,0271835004756398
-0,0266222691180901
-0,0259050191046684
-0,025064178466629
-0,0241327109574724
-0,0231430351147325
-0,0221259236113895
-0,0211094397944378
-0,0201179805312197
-0,0191715002744205
-0,0182849889901961
-0,0174682654585874
-0,016726127673281
-0,0160588748772409
-0,0154631833629512
-0,0149332835411165
-0,0144623523992821
-0,0140440070028471
-0,0136737645552891
-0,0133503255916961
-0,0130765410585975
-0,0128599420729448
-0,0127127424804706
-0,0126512669911859
-0,0126948084479453
-0,0128639724570212
-0,0131786212621187
-0,0136555762279231
-0,0143062747044687
-0,015134598172245
-0,016135091390015
-0,0172917752591015
-0,0185777195073317
-0,0199554871140144
-0,0213784944176791
-0,022793254312215
-0,0241423911608528
-0,0253682419002194
-0,0264167950975886
-0,0272416746097856
-0,0278078518824756
-0,0280947739737852
-0,028098624128287
-0,0278334869126916
-0,0273312670014329
-0,0266403040649034
-0,0258227285904839
-0,0249507065147426
-0,0241018155307613
-0,0233538744964843
-0,022779602260794
-0,0224415079949559
-0,0223874086350069
-0,0226469298607358
-0,0232292774963517
-0,0241224713429382
-0,0252941205536488
-0,0266936978097784
-0,0282561487654742
-0,0299065636833491
-0,0315655492743072
-0,0331548783174569
-0,0346029681657821
-0,0358497494337987
-0,0368505325915967
-0,0375785593001153
-0,0380260307458021
-0,0382035282358287
-0,0381378716252773
-0,037868587774086
-0,037443273487687
-0,0369122257966929
-0,0363227695875928
-0,0357137338329864
-0,0351105114959508
-0,0345210863681317
-0,0339333275776966
-0,0333137468517355
-0,0326077944089519
-0,0317416472507561
-0,0306253293782114
-0,0291569069572645
-0,0272274307577095
-0,0247262588263473
-0,021546386795355
-0,0175894407038905
-0,0127700437957746
-0,00701934778969377
-0,000287611866880284
0,00745419081317011
0,0162136689903144
0,0259770667749549
0,0367098782439948
0,0483578030209897
0,0608478289238951
0,0740892625002163
0,0879745869863194
0,102380102672245
0,117166387590865
0,13217869657678
0,147247483800594
0,162189278708886
0,176808160846384
0,190898061205739
0,204246065898728
0,216636815131089
0,227857983273146
0,237706703833643
0,245996678134502
0,252565591311527
0,257282366644896
0,260053730487952
0,260829543967128
0,25960638938198
0,256428979846298
0,25138908667918
0,244621842478723
0,236299466940014
0,226622662599099
0,215810122319103
0,204086762662029
0,191671431612918
0,17876492225306
0,165539146553054
0,152128280751658
0,138622586381452
0,125065444789617
0,111453928887289
0,097742988951221
0,0838530677452579
0,0696807038040795
0,0551114502327231
0,0400342480551007
0,0243562631825106
0,00801713533913482
-0,00899839852647732
-0,0266504547191928
-0,0448373172128561
-0,0633926894840445
-0,0820871978001955
-0,100634176277204
-0,118699476392802
-0,135914772672282
-0,151893601170325
-0,16624918457444
-0,178612979680624
-0,18865283719165
-0,196089692503457
-0,200711806185134
-0,20238573599612
-0,201063435986405
-0,196785126640975
-0,189677845301416
-0,179949849682859
-0,167881291376194
-0,153811784934948
-0,138125658718525
-0,121235777186382
-0,103566866294
-0,0855392540340082
-0,0675538613141491
-0,0499791524443644
-0,0331405907312037
-0,0173129563568822
-0,00271568520746859
0,0104888071473432
0,0221940293851936
0,0323459082854188
0,0409373467880909
0,0480013909550124
0,0536035773172771
0,0578340168369562
0,0607997189987236
0,062617576449031
0,063408325993086
0,0632916854984068
0,0623827483644731
0,0607896070842287
0,0586120831229945
0,055941368010997
0,0528603341270435
0,0494442545977671
0,0457616791365277
0,0418752434338731
0,037842239036291
0,0337148324273027
0,029539889529923
0,0253584282869485
0,0212047811327224
0,0171055958381708
0,0130788336381376
0,00913293563093033
0,00526632182747642
0,00146736325437737
-0,00228507102838736
-0,00602043929484582
-0,00977472730168635
-0,0135880816513115
-0,0175019869071139
-0,0215561408607508
-0,0257852144689706
-0,0302157009930069
-0,034863061610242
-0,0397293623108915
-0,0448015704711616
-0,0500506413343412
-0,0554314777051693
-0,0608837939245762
-0,0663338612949979
-0,0716970601430075
-0,0768811168653355
-0,0817898653567102
-0,0863273431978551
-0,0904020152385093
-0,0939309112912228
-0,0968434704061564
-0,099084900798789
-0,100618890599853
-0,101429538393197
-0,101522411940368
-0,100924686334017
-0,0996843568213795
-0,0978685645374504
-0,0955611133952197
-0,092859291683282
-0,0898701411072362
-0,0867063380379219
-0,0834818659243322
-0,0803076638902351
-0,0772874345481135
-0,074513784412308
-0,0720648536934382
-0,0700015696270396
-0,0683656299532731
-0,0671782919537262
-0,0664400088605415
-0,0661309207790985
-0,0662121727710409
-0,0666279996238504
-0,0673084861694116
-0,0681728848236083
-0,0691333491732033
-0,0700989247395209
-0,0709796261864817
-0,0716904247974365
-0,0721549714844586
-0,0723088892240281
-0,0721024847559144
-0,0715027524930747
-0,0704945734476322
-0,0690810477665294
-0,067282940010791
-0,065137259977957
-0,0626950466701601
-0,0600184666074685
-0,0571773775143036
-0,0542455418408477
-0,0512966990810344
-0,0484007192087735
-0,0456200600869367
-0,0430067384604005
-0,0405999970446999
-0,0384248102034763
-0,0364913197009623
-0,0347952329428641
-0,0333191526937499
-0,0320347437977528
-0,0309055835337035
-0,0298904924135581
-0,0289471055842876
-0,0280354247848008
-0,0271210891997661
-0,0261781213379765
-0,0251909405415167
-0,0241554896942787
-0,0230793865333845
-0,0219810849060598
-0,0208881077931414
-0,0198344869852697
-0,0188576081013002
-0,0179947089438429
-0,0172793097847213
-0,0167378632688298
-0,0163868981490209
-0,0162308957028881
-0,0162610829634856
-0,0164552569159875
-0,0167786740043964
-0,0171859559060322
-0,0176238822224741
-0,0180348699204796
-0,0183608837702643
-0,0185474861664657
-0,018547721529039
-0,0183255410692714
-0,0178585072596554
-0,0171395712103451
-0,0161777860300759
-0,0149978995753493
-0,01363885439628
-0,0121513045064518
-0,0105943314405521
-0,00903160030775859
-0,00752723579634581
-0,00614171552321349
-0,00492807270575847
-0,00392867262865418
-0,00317278032069613
-0,00267507424812652
-0,00243518783719299
-0,00243828312331503
-0,00265658487178881
-0,0030517349342877
-0,00357777047163864
-0,00418448996016525
-0,00482095015923487
-0,00543883647027159
-0,00599546777226158
-0,00645623281665753
-0,00679630523786158
-0,00700154389734995
-0,00706854969562012
-0,00700391408249269
-0,00682275338435534
-0,00654667247197977
-0,00620133781349424
-0,00581386134842257
-0,00541020186102237
-0,00501277990224976
-0,00463847728420607
-0,00429715527648519
-0,00399078018234136
-0,0037131948236129
-0,00345052365325149
-0,00318215168914809
-0,00288217673945559
-0,00252120335287233
-0,00206832757161806
-0,00149315494374403
-0,000767700356734998
0,000131963880303687
0,00122441755566732
0,00252203052459072
0,00403056083249804
0,00574920476329789
0,00767105323153225
0,00978387724412924
0,0120711416977032
0,0145131333891886
0,017088086778532
0,0197731997799205
0,0225454507178538
0,0253821547537855
0,0282612309648167
0,031161186726432
0,0340608606922748
0,0369389960853708
0,0397737391051974
0,0425421705334843
0,0452199804204508
0,0477813854344713
0,0501993665641673
0,0524462730064674
0,0544947989422258
0,0563192969911557
0,0578973495282433
0,0592114809878557
0,0602508648615789
0,0610128617791508
0,0615042224029356
0,0617418021251668
0,0617526635938356
0,0615734862393256
0,0612492561146724
0,0608312701710417
0,0603745513385415
0,0599348287933158
0,0595652859671432
0,0593133121738989
0,0592175082825559
0,0593051902718814
0,0595906062018174
0,0600740335529759
0,0607418583737725
0,0615676603098398
0,0625142447784188
0,0635364824677915
0,0645847443284822
0,0656086640935175
0,0665609257306965
0,0674007639855078
0,0680968839999123
0,0686295501815787
0,0689916618957713
0,069188718786308
0,0692376744297591
0,0691647752409695
0,0690025732585453
0,0687863782118583
0,068550468786968
0,0683244098243741
0,0681298182409163
0,0679778854611749
0,0678679005990357
0,0677869317225881
0,0677107197038973
0,0676057294034015
0,0674321961147473
0,0671479110029333
0,066712416491447
0,0660912380985546
0,0652597676088628
0,0642064352265074
0,0629348639915079
0,0614647837177293
0,0598315869066855
0,0580845263681954
0,0562836733383738
0,054495865137285
0,0527899629838437
0,0512318051906726
0,049879272643776
0,0487778791958766
0,0479572594768307
0,0474288539764678
0,0471849922673379
0,0471994584533862
0,0474294984813978
0,0478191076386665
0,0483033289125766
0,0488132082387693
0,0492809983015978
0,0496451831141921
0,0498549126733075
0,0498734889441208
0,0496806266589721
0,0492733176892942
0,0486652468910199
0,047884830031484
0,0469720601349422
0,0459744474953908
0,0449424123652383
0,0439245318733245
0,042963050686572
0,0420900379653256
0,0413245139015279
0,0406707829303181
0,0401181051739913
0,0396417219738701
0,0392051354095063
0,0387634353375052
0,0382673796189612
0,0376678710758293
0,0369204433412832
0,0359893694715927
0,0348510415081544
0,0334963329212576
0,031931743389919
0,0301792291053869
0,0282747328958398
0,0262655375788024
0,0242066639545669
0,0221566136734172
0,0201728104295628
0,0183071163335909
0,0166017921886226
0,0150862316824605
0,0137747336451415
0,0126654892078404
0,011740859327894
0,0109689112269488
0,0103060787358238
0,00970071990239689
0,00909727300899167
0,00844066522245536
0,00768061017640575
0,00677544316797872
0,0056951841193511
0,00442358539069876
0,00295900822874965
0,00131407077614705
-0,000485886160050099
-0,00240537059128448
-0,00440211700154604
-0,0064309727986739
-0,00844795516621347
-0,0104141274630434
-0,0122989613884968
-0,0140828961832997
-0,0157588753436064
-0,0173327288178775
-0,01882236710511
-0,0202558548227708
-0,0216685267345291
-0,0230993909842962
-0,0245871256024764
-0,0261660101852509
-0,0278621420700012
-0,0296902648052634
-0,031651488057496
-0,0337321064108045
-0,0359036357191552
-0,0381240870979111
-0,0403403983495862
-0,0424918487592146
-0,0445142033205226
-0,0463442729151687
-0,0479245423984297
-0,0492075115192223
-0,0501594144345792
-0,0507630303594244
-0,0510193666566511
-0,0509480807730473
-0,0505866020245472
-0,0499880108543187
-0,0492178243621031
-0,0483499157401827
-0,0474618559815404
-0,0466300046311422
-0,0459246900473688
-0,0454058082077122
-0,0451191340587643
-0,045093584041768
-0,0453395974339899
-0,0458487232563024
-0,0465944149610216
-0,0475339532111236
-0,0486113436170614
-0,0497609762420748
-0,0509117907350371
-0,051991667367672
-0,0529317607617871
-0,0536705088914141
-0,0541570828746745
-0,0543540898279572
-0,0542393975517368
-0,0538070115033579
-0,0530669967920136
-0,0520444964827998
-0,0507779486149477
-0,0493166451507084
-0,0477178047029366
-0,0460433465278817
-0,0443565561235667
-0,0427188239772513
-0,0411866204244056
-0,0398088435840692
-0,0386246465615432
-0,0376618171888109
-0,0369357509303239
-0,036449027218278
-0,0361915728824963
-0,0361413743726672
-0,0362656834327431
-0,0365226485277909
-0,0368632960050313
-0,0372337797830381
-0,0375778153241758
-0,037839211859545
-0,0379644156157015
-0,0379049758215074
-0,0376198445879549
-0,037077421813891
-0,0362572578437223
-0,0351513306901369
-0,0337648223024065
-0,0321163305703665
-0,0302374711945863
-0,0281718464548658
-0,0259733859675193
-0,0237040967696676
-0,0214312949287607
-0,0192244261945055
-0,0171516164061765
-0,0152761206353126
-0,0136528605977004
-0,0123252501981638
-0,0113225072148522
-0,0106576339425629
-0,0103262208706021
-0,0103061860749378
-0,0105585109393157
-0,0110289730736432
-0,0116508137269568
-0,012348214004935
-0,013040396461268
-0,0136461206652624
-0,0140883071945247
-0,0142985072786353
-0,0142209370555097
-0,0138158166658172
-0,0130617943370217
-0,0119572918420895
-0,0105206765793253
-0,00878924225109767
-0,00681705925357092
-0,00467183166131598
-0,0024309644735616
-0,000177097593499749
0,00200660216004913
0,00404108550132339
0,00585570356696085
0,00739185982481274
0,00860580909126654
0,00947044449776206
0,00997598644019181
0,0101295655913037
0,00995376904743194
0,00948428885408849
0,00876687038264784
0,00785380013881242
0,0068001957991041
0,00566036429170373
0,00448447692143093
0,0033157757605274
0,00218847607450515
0,00112646976115212
0,000142869709165235
-0,00075963004210392
-0,00158766327217214
-0,00235550466539607
-0,00308295864876622
-0,00379301652176533
-0,00450947856989203
-0,00525472572240696
-0,00604779874462545
-0,00690290492571144
-0,00782842663052421
-0,00882645730517148
-0,00989284307830348
-0,0110176661845352
-0,0121860736050038
-0,0133793331568594
-0,0145759911573185
-0,0157530108547546
-0,0168867879202464
-0,0179539661067583
-0,0189320095829903
-0,0197995246340264
-0,0205363584652596
-0,0211235329789962
-0,0215430934006512
-0,0217779631731143
-0,021811896379144
-0,0216296070792911
-0,0212171325586165
-0,0205624569103069
-0,0196563858255532
-0,0184936266958385
-0,0170739941426468
-0,0154036336188959
-0,0134961379879986
-0,0113734262438539
-0,00906626090298699
-0,00661430093143043
-0,00406561887831349
-0,00147565156433552
0,00109440039010891
0,00357966186889196
0,00591405531892362
0,00803301321615375
0,00987626331721357
0,0113905074068796
0,0125318174739266
0,0132675913376075
0,0135779412250411
0,0134564309440274
0,0129101263650719
0,0119589754808446
0,0106345837320209
0,00897849306599251
0,00704010556362039
0,00487441159424431
0,00253968683091377
9,53120002388463E-05
-0,0024001546799317
-0,00489055713544852
-0,00732331968598529
-0,00965021492694273
-0,0118277547998967
-0,0138172746677215
-0,0155848064841876
-0,0171008508519924
-0,0183401576098504
-0,0192816107949432
-0,0199082880859641
-0,0202077301005279
-0,0201724152229483
-0,0198003955202159
-0,0190960135161229
-0,0180705924233307
-0,0167429773984642
-0,0151398047342283
-0,0132953903916986
-0,0112511580423086
-0,00905456739531884
-0,00675755222188971
-0,00441452932421892
-0,00208008936246436
0,000193477435892228
0,0023586379545747
0,00437485899290359
0,00621044488135563
0,0078438025515658
0,00926400826924523
0,0104706062545225
0,011472635050939
0,0122869468716373
0,0129359516220518
0,0134449743827908
0,0138394568629047
0,0141422550896487
0,0143712844417271
0,014537738274037
0,0146450592376315
0,0146887765998864
0,0146572439647726
0,0145332267581734
0,0142962055158196
0,0139251873183302
0,0134017609714573
0,0127130976681955
0,011854591920669
0,010831859098512
0,00966185498791483
0,00837295577270733
0,00700392782685444
0,00560181788806804
0,0042188966040545
0,00290888273895093
0,00172275260854704
0,000704491952762848
-0,000112830101359476
-0,000710296147280674
-0,00108535997636127
-0,00125280033897829
-0,00124425830636906
-0,0011063237397279
-0,000897259651865066
-0,000682573071696244
-0,000529746940828869
-0,000502530083983246
-0,000655233776618624
-0,00102749877330069
-0,00163997378719065
